Timestamp,Voltage,filtered_voltage,amplified_voltage
.649
120885,2.465,2.433,24.649
120885,2.465,2.433,24.649
120885,2.465,2.433,24.649
120885,2.465,2.433,24.649
120885,2.465,2.433,24.649
120885,2.465,2.433,24.649
120885,2.465,2.433,24.649
120885,2.465,2.433,24.649
120885,2.465,2.433,24.649
120885,2.465,2.433,24.649
120885,2.465,2.433,24.649
120885,2.465,2.433,24.649
120885,2.465,2.433,24.649
120885,2.465,2.433,24.649
120885,2.465,2.433,24.649
120885,2.465,2.433,24.649
120885,2.465,2.433,24.649
120885,2.465,2.433,24.649
120885,2.465,2.433,24.649
120885,2.465,2.433,24.649
120885,2.465,2.433,24.649
120885,2.465,2.433,24.649
120885,2.465,2.433,24.649
120885,2.465,2.433,24.649
120885,2.465,2.433,24.649
120885,2.465,2.433,24.649
120885,2.465,2.433,24.649
120885,2.465,2.433,24.649
120885,2.465,2.433,24.649
120885,2.465,2.433,24.649
120885,2.465,2.433,24.649
120885,2.465,2.433,24.649
120885,2.465,2.433,24.649
120885,2.465,2.433,24.649
120885,2.465,2.433,24.649
120885,2.465,2.433,24.649
120885,2.465,2.433,24.649
120885,2.465,2.433,24.649
120900,2.419,2.431,24.194
120915,2.468,2.433,24.681
120930,2.483,2.439,24.831
120945,2.454,2.440,24.536
120960,2.445,2.441,24.454
120975,2.436,2.446,24.359
120990,2.431,2.448,24.311
121005,2.438,2.447,24.385
121020,2.429,2.447,24.292
121035,2.438,2.444,24.385
121050,2.447,2.447,24.469
121065,2.457,2.446,24.569
121080,2.450,2.443,24.502
121095,2.445,2.442,24.448
121110,2.434,2.441,24.343
121125,2.452,2.442,24.522
121140,2.468,2.446,24.678
121155,2.449,2.447,24.490
121170,2.447,2.449,24.475
121185,2.446,2.450,24.461
121200,2.404,2.445,24.035
121215,2.435,2.443,24.347
121230,2.484,2.446,24.845
121245,2.413,2.443,24.131
121260,2.295,2.429,22.945
121275,2.197,2.404,21.975
121290,2.251,2.382,22.515
121305,2.296,2.367,22.955
121320,2.303,2.352,23.031
121335,2.323,2.340,23.229
121350,2.354,2.335,23.540
121365,2.339,2.326,23.393
121380,2.354,2.313,23.541
121395,2.378,2.309,23.779
121425,2.372,2.333,23.719
121440,2.363,2.344,23.629
121455,2.418,2.357,24.180
121470,2.413,2.368,24.128
121485,2.378,2.373,23.782
121500,2.413,2.379,24.134
121515,2.407,2.386,24.066
121530,2.423,2.393,24.228
121545,2.434,2.398,24.343
121560,2.430,2.405,24.301
121575,2.417,2.410,24.172
121590,2.423,2.416,24.231
121605,2.424,2.416,24.245
121620,2.422,2.417,24.225
121635,2.407,2.420,24.067
121650,2.414,2.420,24.139
121665,2.411,2.421,24.111
121680,2.407,2.419,24.069
121695,2.395,2.415,23.945
121710,2.386,2.411,23.858
121725,2.412,2.410,24.123
121740,2.419,2.410,24.187
121755,2.414,2.409,24.144
121770,2.395,2.406,23.950
121785,2.388,2.404,23.885
121800,2.406,2.403,24.062
121815,2.448,2.407,24.483
121830,2.435,2.410,24.346
121845,2.437,2.414,24.369
121860,2.428,2.418,24.278
121875,2.401,2.417,24.012
121890,2.436,2.419,24.361
121905,2.414,2.419,24.139
121920,2.393,2.419,23.926
121935,2.410,2.421,24.104
121950,2.408,2.421,24.085
121965,2.460,2.422,24.599
121980,2.482,2.427,24.823
121995,2.467,2.430,24.665
122010,2.450,2.432,24.504
122025,2.445,2.437,24.449
122040,2.415,2.434,24.154
122055,2.425,2.436,24.253
122070,2.433,2.440,24.331
122085,2.441,2.443,24.415
122100,2.430,2.445,24.296
122115,2.437,2.443,24.374
122130,2.431,2.437,24.307
122145,2.431,2.434,24.312
122160,2.430,2.432,24.298
122175,2.410,2.428,24.102
122190,2.426,2.430,24.263
122205,2.435,2.431,24.354
122220,2.428,2.430,24.284
122235,2.431,2.429,24.310
122250,2.409,2.427,24.089
122265,2.397,2.423,23.966
122280,2.394,2.419,23.935
122295,2.419,2.418,24.190
122310,2.429,2.418,24.289
122325,2.466,2.423,24.659
122340,2.353,2.416,23.529
122355,2.299,2.402,22.985
122370,2.238,2.383,22.379
122385,2.306,2.371,23.065
122400,2.338,2.364,23.375
122415,2.354,2.359,23.538
122430,2.352,2.355,23.520
122445,2.362,2.350,23.623
122460,2.371,2.344,23.709
122475,2.362,2.333,23.616
122490,2.395,2.338,23.950
122505,2.375,2.345,23.754
122520,2.402,2.362,24.019
122535,2.415,2.373,24.150
122550,2.425,2.381,24.249
122565,2.435,2.389,24.350
122580,2.422,2.396,24.221
122595,2.410,2.401,24.104
122610,2.412,2.405,24.125
122625,2.401,2.409,24.010
122640,2.408,2.411,24.085
122655,2.437,2.417,24.365
122670,2.410,2.418,24.101
122685,2.415,2.418,24.153
122700,2.429,2.418,24.289
122715,2.389,2.413,23.890
122730,2.383,2.410,23.830
122745,2.414,2.410,24.142
122760,2.451,2.414,24.511
122775,2.388,2.412,23.880
122790,2.444,2.416,24.444
122805,2.416,2.414,24.160
122820,2.430,2.416,24.298
122835,2.450,2.419,24.499
122850,2.433,2.420,24.334
122865,2.472,2.428,24.724
122880,2.460,2.436,24.597
122895,2.447,2.439,24.472
122910,2.430,2.437,24.300
122925,2.436,2.442,24.356
122940,2.454,2.443,24.543
122955,2.470,2.448,24.697
122970,2.477,2.453,24.766
122985,2.487,2.457,24.875
123000,2.488,2.462,24.881
123015,2.459,2.461,24.587
123030,2.434,2.458,24.337
123045,2.389,2.452,23.892
123060,2.520,2.461,25.200
123075,2.569,2.475,25.690
123090,2.629,2.492,26.286
123105,2.687,2.514,26.866
123120,2.726,2.539,27.256
123135,2.605,2.550,26.050
123150,2.585,2.560,25.847
123165,2.534,2.568,25.345
123180,2.514,2.576,25.142
123195,2.511,2.588,25.115
123210,2.514,2.587,25.142
123225,2.502,2.581,25.022
123240,2.474,2.565,24.738
123255,2.489,2.545,24.886
123270,2.471,2.520,24.708
123285,2.463,2.506,24.629
123300,2.466,2.494,24.664
123315,2.414,2.482,24.135
123330,2.430,2.473,24.298
123345,2.427,2.465,24.274
123360,2.445,2.458,24.448
123375,2.396,2.447,23.956
123390,2.359,2.436,23.593
123405,2.405,2.428,24.048
123420,2.396,2.420,23.961
123435,2.374,2.411,23.740
123450,2.393,2.404,23.930
123465,2.390,2.401,23.896
123480,2.398,2.398,23.981
123495,2.409,2.396,24.090
123510,2.488,2.401,24.880
123525,2.433,2.404,24.327
123540,2.425,2.411,24.249
123555,2.445,2.415,24.449
123570,2.419,2.417,24.193
123585,2.414,2.421,24.141
123600,2.432,2.425,24.325
123615,2.370,2.423,23.699
123630,2.372,2.421,23.719
123645,2.427,2.422,24.265
123660,2.407,2.414,24.071
123675,2.424,2.414,24.241
123690,2.385,2.410,23.853
123705,2.439,2.409,24.386
123720,2.419,2.409,24.186
123735,2.346,2.402,23.458
123750,2.360,2.395,23.600
123765,2.388,2.397,23.879
123780,2.405,2.400,24.051
123795,2.400,2.397,24.004
123810,2.426,2.399,24.260
123825,2.416,2.398,24.158
123840,2.428,2.403,24.281
123855,2.403,2.399,24.032
123870,2.427,2.400,24.274
123885,2.431,2.409,24.315
123900,2.439,2.416,24.386
123915,2.428,2.420,24.283
123930,2.434,2.423,24.344
123945,2.389,2.422,23.888
123960,2.412,2.421,24.125
123975,2.383,2.418,23.834
123990,2.372,2.412,23.715
124005,2.396,2.411,23.961
124020,2.400,2.409,24.001
124035,2.391,2.404,23.910
124050,2.392,2.400,23.921
124065,2.395,2.397,23.953
124080,2.435,2.397,24.346
124095,2.422,2.400,24.218
124110,2.385,2.397,23.854
124125,2.378,2.397,23.782
124140,2.398,2.399,23.976
124155,2.421,2.402,24.206
124170,2.417,2.403,24.170
124185,2.436,2.408,24.361
124200,2.434,2.412,24.341
124215,2.441,2.417,24.410
124230,2.412,2.414,24.118
124245,2.392,2.411,23.923
124260,2.400,2.413,23.997
124275,2.400,2.415,23.996
124290,2.402,2.415,24.020
124305,2.394,2.413,23.942
124320,2.393,2.410,23.927
124335,2.398,2.407,23.981
124350,2.402,2.403,24.025
124365,2.428,2.402,24.276
124380,2.427,2.404,24.269
124395,2.393,2.404,23.927
124410,2.409,2.405,24.088
124425,2.429,2.407,24.292
124440,2.437,2.411,24.372
124455,2.413,2.413,24.131
124470,2.409,2.415,24.093
124485,2.413,2.416,24.132
124500,2.389,2.415,23.892
124515,2.400,2.412,24.004
124530,2.421,2.411,24.206
124545,2.394,2.412,23.944
124560,2.404,2.411,24.037
124575,2.382,2.406,23.819
124590,2.390,2.402,23.904
124605,2.426,2.403,24.256
124620,2.419,2.404,24.189
124635,2.405,2.403,24.048
124650,2.432,2.407,24.318
124665,2.455,2.413,24.549
124680,2.434,2.414,24.340
124695,2.431,2.418,24.306
124710,2.417,2.419,24.174
124725,2.413,2.422,24.128
124740,2.402,2.423,24.023
124755,2.416,2.422,24.164
124770,2.373,2.418,23.730
124785,2.365,2.414,23.646
124800,2.418,2.412,24.181
124815,2.378,2.405,23.776
124830,2.370,2.398,23.696
124845,2.378,2.393,23.781
124860,2.381,2.389,23.805
124875,2.361,2.384,23.614
124890,2.370,2.381,23.698
124905,2.431,2.382,24.309
124920,2.410,2.386,24.102
124935,2.445,2.394,24.454
124950,2.438,2.396,24.380
124965,2.424,2.401,24.237
124980,2.422,2.406,24.218
124995,2.419,2.410,24.193
125010,2.425,2.414,24.246
125025,2.464,2.425,24.641
125040,2.430,2.431,24.301
125055,2.421,2.430,24.209
125070,2.408,2.430,24.076
125085,2.414,2.426,24.137
125100,2.394,2.422,23.937
125115,2.409,2.420,24.089
125130,2.394,2.418,23.940
125145,2.409,2.417,24.093
125160,2.390,2.413,23.901
125175,2.372,2.404,23.720
125190,2.408,2.402,24.079
125205,2.378,2.398,23.782
125220,2.440,2.401,24.404
125235,2.406,2.400,24.058
125250,2.430,2.404,24.299
125265,2.345,2.397,23.451
125280,2.447,2.403,24.475
125295,2.555,2.417,25.550
125310,2.608,2.439,26.080
125325,2.655,2.467,26.551
125340,2.562,2.483,25.615
125355,2.538,2.499,25.379
125370,2.533,2.508,25.330
125385,2.496,2.517,24.964
125400,2.502,2.524,25.019
125415,2.483,2.538,24.827
125430,2.447,2.538,24.472
125445,2.517,2.534,25.175
125460,2.536,2.527,25.359
125475,2.477,2.509,24.770
125490,2.470,2.500,24.702
125505,2.445,2.491,24.449
125520,2.401,2.477,24.011
125535,2.417,2.470,24.171
125550,2.410,2.460,24.102
125565,2.433,2.455,24.326
125580,2.432,2.454,24.316
125595,2.420,2.444,24.202
125610,2.399,2.430,23.988
125625,2.420,2.425,24.202
125640,2.423,2.420,24.234
125655,2.415,2.417,24.154
125670,2.415,2.418,24.151
125685,2.432,2.420,24.323
125700,2.448,2.424,24.479
125715,2.440,2.425,24.404
125730,2.415,2.423,24.149
125745,2.378,2.419,23.776
125760,2.371,2.416,23.712
125775,2.413,2.415,24.131
125790,2.431,2.416,24.310
125805,2.447,2.419,24.466
125820,2.434,2.421,24.343
125835,2.404,2.418,24.035
125850,2.401,2.413,24.006
125865,2.425,2.412,24.254
125880,2.423,2.413,24.233
125895,2.413,2.416,24.126
125910,2.432,2.422,24.319
125925,2.438,2.425,24.382
125940,2.459,2.428,24.587
125955,2.471,2.430,24.710
125970,2.493,2.436,24.925
125985,2.447,2.440,24.465
126000,2.457,2.446,24.571
126015,2.436,2.447,24.364
126030,2.450,2.450,24.501
126045,2.456,2.454,24.556
126060,2.452,2.456,24.517
126075,2.444,2.456,24.435
126090,2.492,2.460,24.923
126105,2.383,2.451,23.829
126120,2.349,2.437,23.490
126135,2.286,2.420,22.857
126150,2.273,2.402,22.726
126165,2.259,2.384,22.592
126180,2.303,2.370,23.034
126195,2.293,2.353,22.934
126210,2.331,2.341,23.309
126225,2.340,2.331,23.400
126240,2.359,2.318,23.595
126255,2.360,2.315,23.601
126270,2.361,2.317,23.605
126285,2.375,2.325,23.745
126300,2.406,2.339,24.058
126315,2.389,2.352,23.892
126330,2.397,2.361,23.969
126345,2.397,2.371,23.966
126360,2.412,2.379,24.119
126375,2.394,2.385,23.935
126390,2.413,2.390,24.126
126405,2.434,2.398,24.341
126420,2.335,2.395,23.350
126435,2.455,2.403,24.554
126450,2.425,2.405,24.253
126465,2.392,2.405,23.916
126480,2.391,2.405,23.912
126495,2.404,2.405,24.044
126510,2.394,2.404,23.940
126525,2.394,2.404,23.942
126540,2.377,2.400,23.770
126555,2.376,2.394,23.760
126570,2.405,2.401,24.051
126585,2.435,2.399,24.350
126600,2.384,2.395,23.837
126615,2.393,2.395,23.934
126630,2.394,2.396,23.937
126645,2.406,2.396,24.059
126660,2.391,2.395,23.909
126675,2.393,2.395,23.926
126690,2.394,2.397,23.937
126705,2.388,2.398,23.875
126720,2.391,2.397,23.905
126735,2.378,2.391,23.776
126750,2.383,2.391,23.833
126765,2.410,2.393,24.104
126780,2.384,2.392,23.839
126795,2.337,2.385,23.374
126810,2.375,2.383,23.745
126825,2.366,2.380,23.660
126840,2.412,2.382,24.124
126855,2.392,2.383,23.916
126870,2.397,2.383,23.974
126885,2.404,2.386,24.039
126900,2.421,2.390,24.215
126915,2.404,2.389,24.042
126930,2.400,2.391,23.999
126945,2.420,2.399,24.199
126960,2.411,2.403,24.106
126975,2.383,2.404,23.831
126990,2.391,2.402,23.915
127005,2.399,2.403,23.993
127020,2.407,2.404,24.065
127035,2.432,2.407,24.324
127050,2.421,2.407,24.210
127065,2.396,2.406,23.961
127080,2.388,2.405,23.875
127095,2.382,2.401,23.815
127110,2.357,2.396,23.566
127125,2.412,2.398,24.124
127140,2.406,2.400,24.060
127155,2.400,2.400,24.002
127170,2.402,2.400,24.024
127185,2.396,2.396,23.962
127200,2.410,2.395,24.096
127215,2.391,2.394,23.914
127230,2.379,2.394,23.789
127245,2.367,2.392,23.670
127260,2.476,2.404,24.756
127275,2.402,2.403,24.020
127290,2.390,2.401,23.899
127305,2.373,2.399,23.729
127320,2.371,2.395,23.708
127335,2.370,2.393,23.701
127350,2.404,2.392,24.035
127365,2.404,2.393,24.042
127380,2.404,2.396,24.041
127395,2.386,2.398,23.862
127410,2.367,2.387,23.673
127425,2.406,2.387,24.059
127440,2.392,2.388,23.923
127455,2.360,2.386,23.604
127470,2.414,2.391,24.135
127485,2.428,2.397,24.278
127500,2.426,2.399,24.260
127515,2.389,2.397,23.894
127530,2.411,2.398,24.111
127545,2.392,2.399,23.924
127560,2.381,2.400,23.807
127575,2.388,2.398,23.885
127590,2.415,2.400,24.148
127605,2.403,2.405,24.029
127620,2.415,2.405,24.155
127635,2.407,2.403,24.074
127650,2.403,2.401,24.028
127665,2.397,2.401,23.970
127680,2.402,2.400,24.018
127695,2.400,2.401,24.002
127710,2.420,2.405,24.202
127725,2.408,2.407,24.083
127740,2.434,2.409,24.344
127755,2.419,2.411,24.189
127770,2.393,2.408,23.934
127785,2.412,2.409,24.125
127800,2.424,2.411,24.242
127815,2.391,2.411,23.915
127830,2.423,2.413,24.228
127845,2.423,2.415,24.229
127860,2.427,2.416,24.270
127875,2.406,2.415,24.062
127890,2.433,2.415,24.326
127905,2.421,2.415,24.210
127920,2.425,2.419,24.254
127935,2.442,2.422,24.424
127950,2.434,2.423,24.339
127965,2.433,2.427,24.327
127980,2.425,2.427,24.248
127995,2.417,2.426,24.166
128010,2.428,2.426,24.280
128025,2.438,2.430,24.385
128040,2.444,2.431,24.435
128055,2.465,2.435,24.654
128070,2.456,2.438,24.561
128085,2.407,2.435,24.069
128100,2.425,2.434,24.254
128115,2.417,2.432,24.174
128130,2.424,2.432,24.239
128145,2.422,2.433,24.221
128160,2.416,2.432,24.161
128175,2.421,2.430,24.209
128190,2.445,2.430,24.450
128205,2.433,2.427,24.331
128220,2.429,2.424,24.289
128235,2.447,2.428,24.472
128250,2.461,2.432,24.613
128265,2.447,2.435,24.466
128280,2.419,2.434,24.191
128295,2.457,2.437,24.565
128310,2.478,2.444,24.783
128325,2.480,2.450,24.801
128340,2.445,2.450,24.451
128355,2.386,2.445,23.858
128370,2.441,2.446,24.406
128385,2.448,2.446,24.483
128400,2.444,2.444,24.445
128415,2.440,2.444,24.399
128430,2.418,2.444,24.179
128445,2.406,2.439,24.061
128460,2.409,2.432,24.086
128475,2.428,2.426,24.283
128490,2.450,2.427,24.497
128505,2.426,2.431,24.256
128520,2.455,2.432,24.555
128535,2.448,2.432,24.479
128550,2.457,2.434,24.573
128565,2.480,2.438,24.795
128580,2.467,2.443,24.667
128595,2.433,2.445,24.327
128610,2.404,2.445,24.035
128625,2.404,2.442,24.036
128640,2.396,2.437,23.960
128655,2.453,2.440,24.525
128670,2.468,2.441,24.684
128685,2.471,2.443,24.708
128700,2.459,2.443,24.590
128715,2.480,2.443,24.801
128730,2.467,2.443,24.669
128745,2.445,2.445,24.455
128760,2.428,2.447,24.275
128775,2.458,2.452,24.579
128790,2.457,2.459,24.575
128805,2.478,2.461,24.779
128820,2.466,2.461,24.664
128835,2.430,2.457,24.295
128850,2.498,2.461,24.978
128865,2.317,2.444,23.173
128880,2.417,2.439,24.169
128895,2.431,2.438,24.311
128910,2.418,2.437,24.183
128925,2.399,2.431,23.990
128940,2.408,2.426,24.083
128955,2.388,2.417,23.881
128970,2.402,2.411,24.020
128985,2.400,2.408,24.000
129000,2.453,2.403,24.530
129015,2.463,2.418,24.632
129030,2.446,2.421,24.456
129045,2.458,2.424,24.585
129060,2.443,2.426,24.431
129075,2.432,2.429,24.321
129090,2.450,2.434,24.504
129105,2.441,2.439,24.414
129120,2.422,2.441,24.225
129135,2.441,2.445,24.410
129150,2.450,2.445,24.495
129165,2.489,2.447,24.886
129180,2.437,2.446,24.366
129195,2.436,2.444,24.360
129210,2.435,2.443,24.351
129225,2.450,2.445,24.495
129240,2.447,2.445,24.472
129255,2.461,2.447,24.605
129270,2.437,2.448,24.372
129285,2.436,2.448,24.358
129300,2.447,2.447,24.471
129315,2.494,2.448,24.943
129330,2.358,2.440,23.575
129345,2.425,2.439,24.254
129360,2.297,2.425,22.966
129375,2.448,2.425,24.485
129390,2.297,2.410,22.970
129405,2.510,2.415,25.097
133080,2.414,2.417,24.139
133095,2.417,2.416,24.165
133095,2.417,2.416,24.165
133095,2.417,2.416,24.165
133095,2.417,2.416,24.165
133095,2.417,2.416,24.165
133095,2.417,2.416,24.165
133095,2.417,2.416,24.165
133095,2.417,2.416,24.165
133095,2.417,2.416,24.165
133095,2.417,2.416,24.165
133095,2.417,2.416,24.165
133095,2.417,2.416,24.165
133095,2.417,2.416,24.165
133095,2.417,2.416,24.165
133095,2.417,2.416,24.165
133095,2.417,2.416,24.165
133095,2.417,2.416,24.165
133095,2.417,2.416,24.165
133095,2.417,2.416,24.165
133095,2.417,2.416,24.165
133095,2.417,2.416,24.165
133095,2.417,2.416,24.165
133095,2.417,2.416,24.165
133095,2.417,2.416,24.165
133095,2.417,2.416,24.165
133095,2.417,2.416,24.165
133095,2.417,2.416,24.165
133095,2.417,2.416,24.165
133095,2.417,2.416,24.165
133095,2.417,2.416,24.165
133095,2.417,2.416,24.165
133095,2.417,2.416,24.165
133095,2.417,2.416,24.165
133095,2.417,2.416,24.165
133095,2.417,2.416,24.165
133095,2.417,2.416,24.165
133095,2.417,2.416,24.165
133095,2.417,2.416,24.165
133095,2.417,2.416,24.165
133095,2.417,2.416,24.165
133095,2.417,2.416,24.165
133095,2.417,2.416,24.165
133095,2.417,2.416,24.165
133095,2.417,2.416,24.165
133095,2.417,2.416,24.165
133095,2.417,2.416,24.165
133095,2.417,2.416,24.165
133095,2.417,2.416,24.165
133095,2.417,2.416,24.165
133095,2.417,2.416,24.165
133095,2.417,2.416,24.165
133095,2.417,2.416,24.165
133095,2.417,2.416,24.165
133095,2.417,2.416,24.165
133095,2.417,2.416,24.165
133095,2.417,2.416,24.165
133095,2.417,2.416,24.165
133095,2.417,2.416,24.165
133095,2.417,2.416,24.165
133095,2.417,2.416,24.165
133095,2.417,2.416,24.165
133095,2.417,2.416,24.165
133095,2.417,2.416,24.165
133095,2.417,2.416,24.165
133095,2.417,2.416,24.165
133095,2.417,2.416,24.165
133095,2.417,2.416,24.165
133095,2.417,2.416,24.165
133095,2.417,2.416,24.165
133095,2.417,2.416,24.165
133095,2.417,2.416,24.165
133095,2.417,2.416,24.165
133095,2.417,2.416,24.165
133110,2.427,2.416,24.272
133110,2.427,2.416,24.272
133110,2.427,2.416,24.272
133110,2.427,2.416,24.272
133110,2.427,2.416,24.272
133110,2.427,2.416,24.272
133110,2.427,2.416,24.272
133110,2.427,2.416,24.272
133110,2.427,2.416,24.272
133110,2.427,2.416,24.272
133110,2.427,2.416,24.272
133110,2.427,2.416,24.272
133110,2.427,2.416,24.272
133110,2.427,2.416,24.272
133110,2.427,2.416,24.272
133110,2.427,2.416,24.272
133110,2.427,2.416,24.272
133110,2.427,2.416,24.272
133110,2.427,2.416,24.272
133110,2.427,2.416,24.272
133110,2.427,2.416,24.272
133110,2.427,2.416,24.272
133110,2.427,2.416,24.272
133110,2.427,2.416,24.272
133110,2.427,2.416,24.272
133110,2.427,2.416,24.272
133110,2.427,2.416,24.272
133110,2.427,2.416,24.272
133110,2.427,2.416,24.272
133110,2.427,2.416,24.272
133110,2.427,2.416,24.272
133110,2.427,2.416,24.272
133110,2.427,2.416,24.272
133110,2.427,2.416,24.272
133110,2.427,2.416,24.272
133110,2.427,2.416,24.272
133110,2.427,2.416,24.272
133110,2.427,2.416,24.272
133110,2.427,2.416,24.272
133110,2.427,2.416,24.272
133110,2.427,2.416,24.272
133110,2.427,2.416,24.272
133110,2.427,2.416,24.272
133110,2.427,2.416,24.272
133110,2.427,2.416,24.272
133110,2.427,2.416,24.272
133110,2.427,2.416,24.272
133110,2.427,2.416,24.272
133110,2.427,2.416,24.272
133110,2.427,2.416,24.272
133110,2.427,2.416,24.272
133110,2.427,2.416,24.272
133110,2.427,2.416,24.272
133110,2.427,2.416,24.272
133110,2.427,2.416,24.272
133110,2.427,2.416,24.272
133110,2.427,2.416,24.272
133110,2.427,2.416,24.272
133110,2.427,2.416,24.272
133110,2.427,2.416,24.272
133110,2.427,2.416,24.272
133110,2.427,2.416,24.272
133110,2.427,2.416,24.272
133110,2.427,2.416,24.272
133110,2.427,2.416,24.272
133110,2.427,2.416,24.272
133110,2.427,2.416,24.272
133110,2.427,2.416,24.272
133110,2.427,2.416,24.272
133110,2.427,2.416,24.272
133110,2.427,2.416,24.272
133110,2.427,2.416,24.272
133110,2.427,2.416,24.272
133110,2.427,2.416,24.272
133110,2.427,2.416,24.272
133110,2.427,2.416,24.272
133110,2.427,2.416,24.272
133110,2.427,2.416,24.272
133110,2.427,2.416,24.272
133110,2.427,2.416,24.272
133110,2.427,2.416,24.272
133110,2.427,2.416,24.272
133110,2.427,2.416,24.272
133110,2.427,2.416,24.272
133110,2.427,2.416,24.272
133110,2.427,2.416,24.272
133110,2.427,2.416,24.272
133110,2.427,2.416,24.272
133110,2.427,2.416,24.272
133110,2.427,2.416,24.272
133110,2.427,2.416,24.272
133110,2.427,2.416,24.272
133110,2.427,2.416,24.272
133110,2.427,2.416,24.272
133110,2.427,2.416,24.272
133110,2.427,2.416,24.272
133110,2.427,2.416,24.272
133110,2.427,2.416,24.272
133110,2.427,2.416,24.272
133110,2.427,2.416,24.272
133110,2.427,2.416,24.272
133110,2.427,2.416,24.272
133110,2.427,2.416,24.272
133110,2.427,2.416,24.272
133110,2.427,2.416,24.272
133110,2.427,2.416,24.272
133110,2.427,2.416,24.272
133110,2.427,2.416,24.272
133110,2.427,2.416,24.272
133110,2.427,2.416,24.272
133110,2.427,2.416,24.272
133110,2.427,2.416,24.272
133110,2.427,2.416,24.272
133110,2.427,2.416,24.272
133110,2.427,2.416,24.272
133110,2.427,2.416,24.272
133110,2.427,2.416,24.272
133110,2.427,2.416,24.272
133110,2.427,2.416,24.272
133110,2.427,2.416,24.272
133110,2.427,2.416,24.272
133110,2.427,2.416,24.272
133110,2.427,2.416,24.272
133110,2.427,2.416,24.272
133110,2.427,2.416,24.272
133110,2.427,2.416,24.272
133110,2.427,2.416,24.272
133110,2.427,2.416,24.272
133110,2.427,2.416,24.272
133110,2.427,2.416,24.272
133110,2.427,2.416,24.272
133110,2.427,2.416,24.272
133110,2.427,2.416,24.272
133110,2.427,2.416,24.272
133110,2.427,2.416,24.272
133110,2.427,2.416,24.272
133110,2.427,2.416,24.272
133110,2.427,2.416,24.272
133110,2.427,2.416,24.272
133110,2.427,2.416,24.272
133110,2.427,2.416,24.272
133110,2.427,2.416,24.272
133110,2.427,2.416,24.272
133110,2.427,2.416,24.272
133110,2.427,2.416,24.272
133110,2.427,2.416,24.272
133110,2.427,2.416,24.272
133110,2.427,2.416,24.272
133110,2.427,2.416,24.272
133110,2.427,2.416,24.272
133110,2.427,2.416,24.272
133110,2.427,2.416,24.272
133110,2.427,2.416,24.272
133110,2.427,2.416,24.272
133110,2.427,2.416,24.272
133110,2.427,2.416,24.272
133110,2.427,2.416,24.272
133110,2.427,2.416,24.272
133110,2.427,2.416,24.272
133110,2.427,2.416,24.272
133110,2.427,2.416,24.272
133110,2.427,2.416,24.272
133110,2.427,2.416,24.272
133110,2.427,2.416,24.272
133110,2.427,2.416,24.272
133110,2.427,2.416,24.272
133110,2.427,2.416,24.272
133125,2.434,2.417,24.341
133140,2.470,2.421,24.695
133155,2.429,2.423,24.290
133170,2.449,2.426,24.491
133185,2.467,2.434,24.675
133200,2.464,2.441,24.636
133215,2.449,2.442,24.491
133230,2.434,2.444,24.337
133245,2.425,2.445,24.249
133260,2.424,2.444,24.237
133275,2.427,2.444,24.265
133290,2.448,2.442,24.478
133305,2.464,2.445,24.644
133320,2.447,2.445,24.467
133335,2.421,2.440,24.214
133350,2.415,2.435,24.153
133365,2.519,2.442,25.185
133380,2.342,2.433,23.425
133395,2.195,2.410,21.951
133410,2.049,2.373,20.492
133425,1.943,2.324,19.427
133440,1.893,2.269,18.934
133455,1.852,2.208,18.525
133470,1.860,2.149,18.595
133485,1.855,2.092,18.550
133500,1.898,2.041,18.978
133515,1.915,1.980,19.151
133530,1.937,1.940,19.372
133545,2.023,1.923,20.235
133560,2.063,1.924,20.626
133575,2.111,1.941,21.105
133590,2.125,1.964,21.254
133605,2.145,1.993,21.455
133620,2.216,2.029,22.156
133635,2.207,2.064,22.067
133650,2.214,2.096,22.145
133665,2.234,2.128,22.344
133680,2.264,2.160,22.644
133695,2.263,2.184,22.627
133710,2.277,2.206,22.769
133725,2.293,2.224,22.931
133740,2.301,2.241,23.009
133755,2.347,2.262,23.474
133770,2.348,2.275,23.484
133785,2.384,2.293,23.835
133800,2.334,2.305,23.340
133815,2.336,2.315,23.356
133830,2.318,2.320,23.175
133845,2.361,2.330,23.608
133860,2.363,2.338,23.626
133875,2.365,2.346,23.645
133890,2.358,2.351,23.579
133905,2.394,2.356,23.942
133920,2.422,2.363,24.218
133935,2.418,2.367,24.180
133950,2.412,2.375,24.124
133965,2.410,2.382,24.096
133980,2.382,2.388,23.823
133995,2.391,2.391,23.912
134010,2.417,2.397,24.169
134025,2.439,2.404,24.388
134040,2.438,2.412,24.380
134055,2.417,2.415,24.172
134070,2.378,2.410,23.779
134085,2.388,2.407,23.875
134100,2.403,2.406,24.028
134115,2.409,2.406,24.089
134130,2.439,2.412,24.391
134145,2.453,2.418,24.531
134160,2.468,2.423,24.685
134175,2.442,2.423,24.419
134190,2.417,2.421,24.165
134205,2.414,2.421,24.140
134220,2.439,2.427,24.392
134235,2.425,2.431,24.249
134250,2.450,2.436,24.504
134265,2.446,2.439,24.459
134280,2.451,2.441,24.510
134295,2.449,2.440,24.489
134310,2.429,2.436,24.288
134325,2.447,2.437,24.469
134340,2.455,2.440,24.549
134355,2.430,2.442,24.295
134370,2.516,2.450,25.162
134385,2.698,2.477,26.976
134400,2.894,2.521,28.939
134415,3.020,2.579,30.199
134430,3.133,2.647,31.327
134445,3.247,2.727,32.468
134460,3.312,2.815,33.122
134475,3.362,2.907,33.619
134490,3.386,3.000,33.865
134505,3.376,3.094,33.760
134520,3.369,3.180,33.694
134535,3.361,3.246,33.605
134550,3.287,3.285,32.873
134565,3.255,3.309,32.550
134580,3.214,3.317,32.141
134595,3.137,3.306,31.369
134610,3.103,3.285,31.030
134625,3.028,3.252,30.282
134640,2.974,3.210,29.735
134655,2.935,3.166,29.354
134670,2.863,3.116,28.628
134685,2.867,3.066,28.670
134700,2.825,3.020,28.246
134715,2.766,2.971,27.660
134730,2.761,2.926,27.609
134745,2.756,2.888,27.559
134760,2.703,2.848,27.028
134775,2.671,2.812,26.714
134790,2.602,2.775,26.016
134805,2.577,2.739,25.770
134820,2.552,2.708,25.516
134835,2.544,2.676,25.439
134850,2.516,2.645,25.156
134865,2.524,2.620,25.238
134880,2.501,2.594,25.009
134895,2.497,2.569,24.971
134910,2.482,2.547,24.824
134925,2.473,2.527,24.731
134940,2.474,2.514,24.741
134955,2.453,2.502,24.528
134970,2.461,2.492,24.606
134985,2.478,2.486,24.784
135000,2.497,2.484,24.969
135015,2.468,2.478,24.681
135030,2.455,2.474,24.552
135045,2.486,2.473,24.864
135060,2.520,2.477,25.203
135075,2.499,2.479,24.994
135090,2.504,2.482,25.038
135105,2.509,2.488,25.086
135120,2.536,2.495,25.361
135135,2.475,2.495,24.754
135150,2.454,2.491,24.539
135165,2.452,2.489,24.516
135180,2.489,2.492,24.894
135195,2.477,2.492,24.767
135210,2.451,2.485,24.506
135225,2.457,2.480,24.570
135240,2.469,2.477,24.686
135255,2.444,2.470,24.441
135270,2.467,2.463,24.673
135285,2.460,2.462,24.600
135300,2.459,2.462,24.591
135315,2.458,2.463,24.583
135330,2.431,2.457,24.306
135345,2.420,2.452,24.196
135360,2.428,2.449,24.283
135375,2.463,2.450,24.627
135390,2.453,2.448,24.531
135405,2.441,2.448,24.405
135420,2.434,2.445,24.344
135435,2.436,2.442,24.359
135450,2.432,2.440,24.324
135465,2.456,2.439,24.557
135480,2.441,2.440,24.407
135495,2.464,2.445,24.645
135510,2.438,2.446,24.381
135525,2.444,2.444,24.445
135540,2.444,2.443,24.443
135555,2.482,2.447,24.816
135570,2.472,2.451,24.720
135585,2.448,2.452,24.485
135600,2.459,2.455,24.590
135615,2.440,2.453,24.399
135630,2.438,2.453,24.385
135645,2.460,2.453,24.604
135660,2.453,2.454,24.525
135675,2.413,2.451,24.130
135690,2.409,2.447,24.091
135705,2.396,2.439,23.958
135720,2.381,2.430,23.814
135735,2.398,2.425,23.979
135750,2.407,2.420,24.071
135765,2.423,2.418,24.234
135780,2.408,2.415,24.077
135795,2.417,2.410,24.166
135810,2.393,2.404,23.929
135825,2.434,2.407,24.339
135840,2.426,2.408,24.259
135855,2.403,2.409,24.030
135870,2.405,2.411,24.048
135885,2.456,2.417,24.559
135900,2.428,2.419,24.278
135915,2.257,2.403,22.574
135930,2.063,2.368,20.630
135945,1.924,2.319,19.236
135960,1.809,2.260,18.094
135975,1.709,2.188,17.089
135990,1.655,2.111,16.546
136005,1.633,2.034,16.326
136020,1.607,1.954,16.068
136035,1.570,1.865,15.701
136050,1.585,1.781,15.850
136065,1.579,1.713,15.791
136080,1.612,1.668,16.124
136095,1.610,1.637,16.100
136110,1.614,1.617,16.136
136125,1.670,1.613,16.701
136140,1.755,1.624,17.554
136155,1.810,1.641,18.101
136170,1.866,1.667,18.659
136185,1.907,1.701,19.070
136200,1.934,1.736,19.336
136215,2.007,1.779,20.071
136230,2.041,1.821,20.410
136245,2.087,1.869,20.866
136260,2.122,1.920,21.215
136275,2.116,1.964,21.163
136290,2.144,2.003,21.441
136305,2.165,2.039,21.651
136320,2.202,2.072,22.019
136335,2.238,2.105,22.378
136350,2.247,2.137,22.466
136365,2.265,2.163,22.649
136380,2.295,2.188,22.946
136395,2.279,2.207,22.791
136410,2.300,2.225,23.001
136425,2.315,2.245,23.149
136440,2.326,2.263,23.261
136455,2.342,2.281,23.416
136470,2.333,2.294,23.329
136485,2.368,2.307,23.679
136500,2.372,2.319,23.721
136515,2.396,2.333,23.961
136530,2.391,2.342,23.915
136545,2.400,2.354,23.999
136560,2.394,2.364,23.940
136575,2.374,2.370,23.736
136590,2.358,2.373,23.576
136605,2.373,2.376,23.731
136620,2.405,2.383,24.046
136635,2.414,2.388,24.142
136650,2.425,2.393,24.253
136665,2.451,2.399,24.514
136680,2.438,2.403,24.384
136695,2.391,2.402,23.910
136710,2.370,2.400,23.696
136725,2.335,2.396,23.350
136740,2.326,2.393,23.258
136755,2.327,2.388,23.270
136770,2.301,2.378,23.009
136785,2.322,2.369,23.217
136800,2.289,2.355,22.891
136815,2.315,2.341,23.147
136830,2.318,2.329,23.179
136845,2.337,2.324,23.370
136860,2.373,2.324,23.729
136875,2.374,2.328,23.736
136890,2.342,2.330,23.423
136905,2.366,2.334,23.665
136920,2.380,2.342,23.798
136935,2.352,2.345,23.525
136950,2.378,2.354,23.785
136965,2.401,2.362,24.006
136980,2.392,2.370,23.918
136995,2.389,2.375,23.890
137010,2.398,2.377,23.983
137025,2.403,2.380,24.029
137040,2.378,2.384,23.784
137055,2.382,2.385,23.815
137070,2.388,2.386,23.884
137085,2.399,2.391,23.990
137100,2.397,2.393,23.970
137115,2.385,2.391,23.853
137130,2.371,2.389,23.708
137145,2.394,2.390,23.941
137160,2.406,2.390,24.058
137175,2.401,2.390,24.011
137190,2.414,2.394,24.140
137205,2.408,2.396,24.075
137220,2.417,2.399,24.171
137235,2.401,2.399,24.014
137250,2.366,2.396,23.659
137265,2.398,2.398,23.975
137280,2.281,2.389,22.810
137295,2.496,2.399,24.960
137310,2.629,2.421,26.286
137325,2.759,2.457,27.590
137340,2.889,2.504,28.888
137355,2.966,2.560,29.659
137370,3.088,2.627,30.884
137385,3.158,2.703,31.581
137400,3.217,2.788,32.171
137415,3.290,2.877,32.901
137430,3.326,2.982,33.259
137445,3.340,3.066,33.397
137460,3.311,3.134,33.111
137475,3.287,3.187,32.869
137490,3.247,3.223,32.475
137505,3.184,3.245,31.840
137520,3.156,3.252,31.556
137535,3.073,3.243,30.733
137550,3.020,3.223,30.195
137565,2.978,3.192,29.783
137580,2.949,3.154,29.490
137595,2.884,3.109,28.842
137610,2.842,3.062,28.424
137625,2.807,3.014,28.074
137640,2.793,2.969,27.927
137655,2.711,2.921,27.115
137670,2.682,2.874,26.816
137685,2.654,2.832,26.537
137700,2.613,2.791,26.131
137715,2.613,2.755,26.134
137730,2.598,2.720,25.984
137745,2.591,2.690,25.906
137760,2.585,2.665,25.846
137775,2.574,2.641,25.736
137790,2.542,2.616,25.419
137805,2.556,2.601,25.555
137820,2.522,2.585,25.221
137835,2.489,2.568,24.886
137850,2.450,2.552,24.504
137865,2.470,2.538,24.697
137880,2.450,2.523,24.500
137895,2.470,2.511,24.701
137910,2.469,2.499,24.687
137925,2.473,2.489,24.729
137940,2.466,2.481,24.664
137955,2.435,2.469,24.351
137970,2.411,2.458,24.114
137985,2.389,2.448,23.886
138000,2.434,2.447,24.345
138015,2.440,2.444,24.396
138030,2.452,2.444,24.517
138045,2.453,2.442,24.532
138060,2.484,2.444,24.844
138075,2.449,2.441,24.490
138090,2.441,2.439,24.410
138105,2.424,2.438,24.240
138120,2.405,2.437,24.054
138135,2.429,2.441,24.288
138150,2.432,2.441,24.325
138165,2.454,2.442,24.541
138180,2.458,2.443,24.579
138195,2.440,2.442,24.396
138210,2.451,2.438,24.513
138225,2.452,2.439,24.516
138240,2.419,2.436,24.193
138255,2.401,2.434,24.012
138270,2.397,2.433,23.965
138285,2.400,2.430,23.996
138300,2.419,2.429,24.194
138315,2.403,2.424,24.034
138330,2.391,2.417,23.905
138345,2.428,2.416,24.280
138360,2.431,2.414,24.306
138375,2.420,2.411,24.202
138390,2.431,2.412,24.311
138405,2.424,2.414,24.237
138420,2.457,2.420,24.566
138435,2.410,2.421,24.099
138450,2.404,2.420,24.042
138465,2.419,2.421,24.190
138480,2.430,2.425,24.295
138495,2.425,2.425,24.246
138510,2.419,2.424,24.191
138525,2.411,2.423,24.111
138540,2.458,2.426,24.583
138555,2.438,2.427,24.375
138570,2.426,2.424,24.264
138585,2.419,2.425,24.194
138600,2.413,2.426,24.128
138615,2.421,2.426,24.211
138630,2.438,2.427,24.380
138645,2.437,2.428,24.368
138660,2.430,2.429,24.301
138675,2.484,2.436,24.836
138690,2.324,2.423,23.243
138705,2.244,2.404,22.441
138720,2.076,2.369,20.755
138735,1.927,2.319,19.270
138750,1.783,2.256,17.827
138765,1.686,2.183,16.860
138780,1.639,2.103,16.391
138795,1.582,2.017,15.820
138810,1.546,1.929,15.458
138825,1.563,1.837,15.626
138840,1.582,1.763,15.819
138855,1.618,1.700,16.184
138870,1.641,1.657,16.411
138885,1.675,1.631,16.751
138900,1.717,1.625,17.174
138915,1.757,1.632,17.567
138930,1.795,1.648,17.948
138945,1.837,1.673,18.366
138960,1.892,1.708,18.919
138975,1.923,1.744,19.230
138990,1.961,1.782,19.612
139005,2.004,1.820,20.044
139020,2.058,1.862,20.584
139035,2.083,1.903,20.828
139050,2.117,1.943,21.167
139065,2.178,1.985,21.775
139080,2.199,2.025,21.987
139095,2.211,2.063,22.113
139110,2.243,2.098,22.435
139125,2.256,2.131,22.560
139140,2.273,2.162,22.731
139155,2.294,2.191,22.941
139170,2.252,2.211,22.522
139185,2.293,2.232,22.931
139200,2.328,2.253,23.276
139215,2.342,2.269,23.416
139230,2.380,2.287,23.801
139245,2.339,2.300,23.395
139260,2.361,2.312,23.609
139275,2.387,2.325,23.870
139290,2.369,2.335,23.687
139305,2.393,2.344,23.930
139320,2.377,2.357,23.766
139335,2.404,2.368,24.036
139350,2.386,2.374,23.856
139365,2.405,2.380,24.053
139380,2.392,2.381,23.924
139395,2.401,2.387,24.005
139410,2.404,2.392,24.044
139425,2.414,2.394,24.141
139440,2.413,2.399,24.134
139455,2.412,2.401,24.121
139470,2.423,2.405,24.234
139485,2.425,2.408,24.251
139500,2.432,2.412,24.319
139515,2.398,2.412,23.981
139530,2.370,2.409,23.702
139545,2.368,2.406,23.685
139560,2.395,2.405,23.951
139575,2.430,2.407,24.296
139590,2.412,2.407,24.120
139605,2.432,2.409,24.319
139620,2.411,2.407,24.111
139635,2.426,2.407,24.257
139650,2.437,2.408,24.365
139665,2.445,2.413,24.450
139680,2.446,2.420,24.459
139695,2.432,2.426,24.319
139710,2.424,2.429,24.245
139725,2.415,2.428,24.154
139740,2.426,2.429,24.256
139755,2.439,2.430,24.392
139770,2.434,2.432,24.337
139785,2.426,2.432,24.260
139800,2.411,2.430,24.109
139815,2.405,2.426,24.053
139830,2.384,2.420,23.842
139845,2.419,2.418,24.193
139860,2.443,2.420,24.431
139875,2.419,2.421,24.194
139890,2.399,2.418,23.993
139905,2.418,2.416,24.184
139920,2.408,2.413,24.076
139935,2.396,2.410,23.958
139950,2.390,2.408,23.900
139965,2.317,2.399,23.173
139980,2.552,2.416,25.521
139995,2.727,2.447,27.269
140010,2.887,2.491,28.871
140025,3.037,2.553,30.369
140040,3.168,2.630,31.685
140055,3.198,2.708,31.976
140070,3.244,2.792,32.439
140085,3.257,2.878,32.569
140100,3.263,2.965,32.635
140115,3.237,3.057,32.365
140130,3.231,3.125,32.306
140145,3.197,3.172,31.975
140160,3.173,3.201,31.731
140175,3.149,3.212,31.491
140190,3.089,3.204,30.893
140205,3.074,3.191,30.739
140220,3.041,3.171,30.409
140235,2.986,3.144,29.859
140250,2.938,3.111,29.382
140265,2.888,3.077,28.883
140280,2.832,3.037,28.321
140295,2.797,2.997,27.971
140310,2.738,2.953,27.379
140325,2.721,2.910,27.214
140340,2.694,2.871,26.937
140355,2.648,2.828,26.484
140370,2.655,2.790,26.553
140385,2.642,2.755,26.416
140400,2.615,2.723,26.154
140415,2.580,2.692,25.796
140430,2.510,2.660,25.097
140445,2.522,2.632,25.216
140460,2.524,2.611,25.236
140475,2.497,2.589,24.972
140490,2.528,2.572,25.276
140505,2.562,2.563,25.620
140520,2.543,2.552,25.427
140535,2.526,2.541,25.265
140550,2.514,2.531,25.144
140565,2.489,2.521,24.885
140580,2.499,2.520,24.990
140595,2.497,2.518,24.968
140610,2.485,2.514,24.849
140625,2.490,2.513,24.904
140640,2.480,2.509,24.802
140655,2.482,2.501,24.824
140670,2.450,2.491,24.501
140685,2.463,2.485,24.634
140700,2.469,2.480,24.687
140715,2.485,2.480,24.850
140730,2.468,2.477,24.679
140745,2.467,2.474,24.675
140760,2.480,2.474,24.801
140775,2.480,2.473,24.796
140790,2.470,2.471,24.701
140805,2.461,2.469,24.611
140820,2.438,2.468,24.376
140835,2.457,2.468,24.574
140850,2.469,2.468,24.687
140865,2.490,2.468,24.900
140880,2.479,2.469,24.794
140895,2.495,2.472,24.950
140910,2.501,2.474,25.007
140925,2.486,2.475,24.861
140940,2.471,2.475,24.713
140955,2.445,2.473,24.448
140970,2.466,2.476,24.661
140985,2.468,2.477,24.678
141000,2.468,2.477,24.684
141015,2.463,2.474,24.625
141030,2.424,2.469,24.240
141045,2.430,2.462,24.296
141060,2.448,2.457,24.484
141075,2.453,2.454,24.528
141090,2.445,2.451,24.454
141105,2.432,2.450,24.318
141120,2.444,2.447,24.440
141135,2.444,2.445,24.444
141150,2.426,2.441,24.257
141165,2.433,2.438,24.334
141180,2.419,2.437,24.191
141195,2.467,2.441,24.665
141210,2.441,2.440,24.411
141225,2.454,2.441,24.539
141240,2.395,2.435,23.946
141255,2.401,2.432,24.015
141270,2.415,2.430,24.150
141285,2.425,2.428,24.246
141300,2.429,2.428,24.288
141315,2.425,2.427,24.248
141330,2.442,2.429,24.421
141345,2.451,2.428,24.510
141360,2.435,2.427,24.347
141375,2.424,2.424,24.241
141390,2.514,2.436,25.136
141405,2.321,2.428,23.206
141420,2.201,2.407,22.006
141435,2.038,2.368,20.379
141450,1.863,2.311,18.626
141465,1.773,2.246,17.730
141480,1.691,2.171,16.914
141495,1.627,2.089,16.271
141510,1.582,2.003,15.816
141525,1.524,1.913,15.244
141540,1.534,1.815,15.336
141555,1.553,1.739,15.531
141570,1.580,1.676,15.796
141585,1.633,1.636,16.335
141600,1.695,1.619,16.949
141615,1.733,1.615,17.330
141630,1.775,1.624,17.749
141645,1.805,1.641,18.049
141660,1.852,1.668,18.524
141675,1.910,1.707,19.100
141690,1.960,1.750,19.597
141705,2.012,1.795,20.119
141720,2.046,1.842,20.456
141735,2.065,1.885,20.653
141750,2.091,1.925,20.914
141765,2.116,1.963,21.160
141780,2.168,2.003,21.679
141795,2.211,2.043,22.113
141810,2.233,2.081,22.326
141825,2.235,2.114,22.350
141840,2.244,2.142,22.441
141855,2.270,2.168,22.701
141870,2.251,2.188,22.510
141885,2.329,2.215,23.293
141900,2.335,2.239,23.351
141915,2.319,2.260,23.189
141930,2.315,2.274,23.147
141945,2.316,2.285,23.157
141960,2.343,2.296,23.428
141975,2.349,2.307,23.486
141990,2.349,2.317,23.488
142005,2.388,2.329,23.881
142020,2.374,2.342,23.741
142035,2.372,2.346,23.715
142050,2.377,2.350,23.774
142065,2.393,2.358,23.934
142080,2.418,2.368,24.181
142095,2.417,2.378,24.169
142110,2.405,2.384,24.050
142125,2.386,2.388,23.865
142140,2.386,2.392,23.858
142155,2.369,2.390,23.686
142170,2.393,2.392,23.927
142185,2.391,2.394,23.912
142200,2.433,2.399,24.331
142215,2.406,2.400,24.064
142230,2.415,2.400,24.155
142245,2.424,2.401,24.244
142260,2.411,2.401,24.105
142275,2.402,2.403,24.025
142290,2.434,2.408,24.340
142305,2.419,2.413,24.194
142320,2.418,2.415,24.177
142335,2.404,2.417,24.040
142350,2.398,2.413,23.975
142365,2.447,2.417,24.467
142380,2.443,2.420,24.434
142395,2.464,2.424,24.635
142410,2.416,2.424,24.160
142425,2.424,2.427,24.241
142440,2.455,2.429,24.549
142455,2.453,2.432,24.532
142470,2.443,2.435,24.429
142485,2.416,2.436,24.163
142500,2.420,2.438,24.200
142515,2.397,2.433,23.974
142530,2.408,2.430,24.079
142545,2.410,2.424,24.097
142560,2.435,2.426,24.355
142575,2.455,2.429,24.551
142590,2.434,2.427,24.336
142605,2.400,2.422,24.004
142620,2.410,2.419,24.097
142635,2.394,2.416,23.940
142650,2.383,2.413,23.831
142665,2.406,2.414,24.062
142680,2.428,2.416,24.279
142695,2.409,2.415,24.094
142710,2.306,2.403,23.061
142725,2.456,2.403,24.562
142740,2.600,2.419,25.998
142755,2.754,2.455,27.545
142770,2.894,2.503,28.937
142785,3.071,2.571,30.714
142800,3.154,2.648,31.537
142815,3.178,2.725,31.778
142830,3.202,2.802,32.024
142845,3.207,2.882,32.071
142860,3.234,2.975,32.345
142875,3.236,3.053,32.360
142890,3.248,3.118,32.481
142905,3.208,3.163,32.081
142920,3.171,3.191,31.706
142935,3.137,3.198,31.369
142950,3.085,3.191,30.850
142965,3.038,3.177,30.379
142980,3.022,3.159,30.224
142995,2.979,3.136,29.792
143010,2.926,3.105,29.256
143025,2.840,3.065,28.403
143040,2.815,3.022,28.147
143055,2.743,2.976,27.432
143070,2.704,2.929,27.044
143085,2.678,2.883,26.775
143100,2.671,2.842,26.711
143115,2.635,2.801,26.346
143130,2.645,2.764,26.455
143145,2.605,2.726,26.055
143160,2.587,2.692,25.868
143175,2.543,2.663,25.435
143190,2.512,2.632,25.120
143205,2.489,2.607,24.889
143220,2.478,2.584,24.783
143235,2.464,2.563,24.639
143250,2.466,2.542,24.659
143265,2.485,2.528,24.851
143280,2.492,2.512,24.916
143295,2.501,2.502,25.013
143310,2.451,2.488,24.514
143325,2.454,2.479,24.537
143340,2.460,2.474,24.601
143355,2.458,2.471,24.584
143370,2.500,2.473,25.004
143385,2.477,2.474,24.770
143400,2.464,2.474,24.643
143415,2.466,2.472,24.655
143430,2.427,2.466,24.267
143445,2.402,2.456,24.021
143460,2.398,2.451,23.983
143475,2.427,2.448,24.265
143490,2.444,2.446,24.439
143505,2.460,2.447,24.604
143520,2.441,2.441,24.414
143535,2.423,2.435,24.234
143550,2.378,2.427,23.784
143565,2.380,2.418,23.796
143580,2.405,2.416,24.055
143595,2.404,2.416,24.036
143610,2.420,2.418,24.196
143625,2.408,2.416,24.085
143640,2.412,2.413,24.124
143655,2.402,2.407,24.025
143670,2.426,2.406,24.260
143685,2.457,2.409,24.567
143700,2.482,2.420,24.823
143715,2.470,2.429,24.701
143730,2.463,2.434,24.629
143745,2.446,2.439,24.461
143760,2.434,2.440,24.337
143775,2.442,2.444,24.423
143790,2.440,2.446,24.395
143805,2.419,2.448,24.189
143820,2.433,2.449,24.329
143835,2.405,2.443,24.045
143850,2.415,2.437,24.155
143865,2.405,2.430,24.054
143880,2.447,2.429,24.472
143895,2.409,2.425,24.089
143910,2.407,2.422,24.069
143925,2.422,2.420,24.222
143940,2.436,2.420,24.361
143955,2.431,2.421,24.309
143970,2.416,2.419,24.160
143985,2.439,2.423,24.390
144000,2.417,2.423,24.170
144015,2.425,2.425,24.255
144030,2.402,2.420,24.021
144045,2.418,2.421,24.185
144060,2.421,2.423,24.207
144075,2.418,2.422,24.177
144090,2.424,2.421,24.236
144105,2.429,2.421,24.290
144120,2.420,2.421,24.199
144135,2.411,2.418,24.109
144150,2.418,2.419,24.175
144165,2.493,2.425,24.934
144180,2.364,2.422,23.639
144195,2.221,2.402,22.208
144210,2.015,2.361,20.146
144225,1.878,2.307,18.775
144240,1.738,2.239,17.385
144255,1.645,2.160,16.452
144270,1.611,2.079,16.111
144285,1.587,1.997,15.875
144300,1.573,1.913,15.727
144315,1.542,1.817,15.417
144330,1.535,1.734,15.347
144345,1.587,1.671,15.868
144360,1.622,1.632,16.222
144375,1.653,1.609,16.528
144390,1.676,1.603,16.759
144405,1.752,1.614,17.522
144420,1.785,1.631,17.852
144435,1.859,1.658,18.585
144450,1.888,1.690,18.876
144465,1.952,1.731,19.515
144480,2.001,1.777,20.013
144495,2.026,1.821,20.262
144510,2.085,1.868,20.851
144525,2.144,1.917,21.435
144540,2.151,1.964,21.512
144555,2.192,2.008,21.920
144570,2.234,2.053,22.345
144585,2.239,2.091,22.390
144600,2.260,2.128,22.596
144615,2.299,2.163,22.986
144630,2.257,2.189,22.571
144645,2.294,2.215,22.937
144660,2.316,2.239,23.161
144675,2.327,2.257,23.267
144690,2.324,2.274,23.240
144705,2.324,2.287,23.239
144720,2.358,2.300,23.580
144735,2.372,2.313,23.722
144750,2.396,2.327,23.960
144765,2.390,2.336,23.903
144780,2.420,2.352,24.199
144795,2.391,2.362,23.914
144810,2.378,2.368,23.778
144825,2.375,2.373,23.746
144840,2.419,2.382,24.187
144855,2.423,2.392,24.230
144870,2.417,2.398,24.174
144885,2.407,2.402,24.069
144900,2.411,2.403,24.109
144915,2.391,2.403,23.907
144930,2.432,2.404,24.316
144945,2.457,2.411,24.566
144960,2.459,2.419,24.587
144975,2.455,2.427,24.552
144990,2.417,2.427,24.170
145005,2.413,2.426,24.128
145020,2.406,2.425,24.056
145035,2.411,2.425,24.107
145050,2.441,2.428,24.410
145065,2.455,2.434,24.550
145080,2.412,2.433,24.125
145095,2.404,2.427,24.041
145110,2.413,2.423,24.134
145125,2.415,2.419,24.154
145140,2.426,2.420,24.263
145155,2.421,2.421,24.213
145170,2.401,2.420,24.010
145185,2.411,2.420,24.109
145200,2.438,2.420,24.379
145215,2.451,2.419,24.515
145230,2.426,2.421,24.264
145245,2.461,2.426,24.605
145260,2.458,2.431,24.578
145275,2.464,2.436,24.636
145290,2.455,2.439,24.551
145305,2.445,2.441,24.449
145320,2.465,2.447,24.648
145335,2.426,2.449,24.256
145350,2.444,2.449,24.439
145365,2.424,2.447,24.239
145380,2.424,2.446,24.241
145395,2.443,2.445,24.426
145410,2.406,2.439,24.058
145425,2.452,2.438,24.521
145440,2.428,2.436,24.285
145455,2.421,2.433,24.214
145470,2.426,2.429,24.260
145485,2.441,2.431,24.414
145500,2.456,2.432,24.562
145515,2.448,2.435,24.481
145530,2.440,2.436,24.399
145545,2.400,2.432,23.999
145560,2.362,2.428,23.623
145575,2.396,2.422,23.964
145590,2.315,2.411,23.147
145605,2.547,2.423,25.475
145620,2.710,2.452,27.096
145635,2.829,2.490,28.290
145650,2.960,2.541,29.602
145665,3.046,2.601,30.457
145680,3.122,2.669,31.222
145695,3.161,2.745,31.611
145710,3.178,2.826,31.783
145725,3.227,2.910,32.271
145740,3.198,2.998,31.985
145755,3.207,3.064,32.069
145770,3.182,3.111,31.821
145785,3.144,3.143,31.440
145800,3.137,3.160,31.371
145815,3.086,3.164,30.860
145830,3.039,3.156,30.386
145845,3.001,3.140,30.013
145860,3.009,3.123,30.085
145875,2.973,3.098,29.726
145890,2.903,3.068,29.028
145905,2.897,3.037,28.971
145920,2.863,3.005,28.632
145935,2.780,2.969,27.795
145950,2.720,2.927,27.202
145965,2.696,2.888,26.962
145980,2.681,2.852,26.815
145995,2.640,2.816,26.396
146010,2.601,2.775,26.009
146025,2.588,2.737,25.876
146040,2.572,2.704,25.716
146055,2.577,2.672,25.770
146070,2.561,2.642,25.612
146085,2.535,2.617,25.349
146100,2.520,2.597,25.199
146115,2.502,2.578,25.022
146130,2.519,2.561,25.191
146145,2.503,2.548,25.034
146160,2.479,2.536,24.794
146175,2.488,2.526,24.878
146190,2.470,2.515,24.700
146205,2.487,2.506,24.870
146220,2.472,2.498,24.721
146235,2.477,2.492,24.767
146250,2.459,2.486,24.591
146265,2.452,2.481,24.517
146280,2.460,2.475,24.599
146295,2.454,2.470,24.545
146310,2.435,2.465,24.347
146325,2.451,2.462,24.509
146340,2.445,2.459,24.449
146355,2.446,2.455,24.464
146370,2.445,2.452,24.454
146385,2.413,2.446,24.129
146400,2.407,2.441,24.065
146415,2.396,2.435,23.962
146430,2.420,2.431,24.204
146445,2.425,2.428,24.251
146460,2.424,2.427,24.240
146475,2.421,2.424,24.209
146490,2.419,2.422,24.191
146505,2.397,2.417,23.970
146520,2.409,2.413,24.094
146535,2.409,2.413,24.090
146550,2.406,2.413,24.059
146565,2.429,2.416,24.294
146580,2.438,2.418,24.385
146595,2.426,2.418,24.256
146610,2.425,2.418,24.246
146625,2.413,2.417,24.126
146640,2.397,2.415,23.969
146655,2.393,2.414,23.929
146670,2.402,2.414,24.019
146685,2.421,2.415,24.213
146700,2.421,2.416,24.210
146715,2.420,2.416,24.202
146730,2.434,2.415,24.340
146745,2.432,2.416,24.323
146760,2.407,2.414,24.067
146775,2.409,2.414,24.090
146790,2.410,2.415,24.102
146805,2.409,2.417,24.094
146820,2.435,2.420,24.350
146835,2.419,2.420,24.186
146850,2.428,2.420,24.285
146865,2.408,2.419,24.075
146880,2.415,2.417,24.148
146895,2.403,2.414,24.030
146910,2.378,2.411,23.778
146925,2.405,2.411,24.051
146940,2.393,2.409,23.931
146955,2.414,2.410,24.141
146970,2.401,2.406,24.007
146985,2.403,2.405,24.026
147000,2.380,2.400,23.799
147015,2.437,2.403,24.368
147030,2.343,2.396,23.433
147045,2.316,2.387,23.163
147060,2.174,2.367,21.737
147075,2.034,2.329,20.343
147090,1.879,2.278,18.790
147105,1.729,2.210,17.285
147120,1.640,2.133,16.395
147135,1.606,2.054,16.059
147150,1.566,1.972,15.662
147165,1.571,1.886,15.715
147180,1.602,1.812,16.019
147195,1.605,1.741,16.048
147210,1.614,1.685,16.140
147225,1.630,1.644,16.302
147240,1.699,1.626,16.991
147255,1.742,1.628,17.423
147270,1.784,1.642,17.840
147285,1.827,1.664,18.267
147300,1.898,1.697,18.979
147315,1.952,1.735,19.516
147330,1.949,1.770,19.487
147345,2.001,1.810,20.015
147360,2.018,1.850,20.182
147375,2.043,1.891,20.429
147390,2.083,1.930,20.826
147405,2.124,1.968,21.240
147420,2.152,2.005,21.521
147435,2.174,2.039,21.745
147450,2.210,2.071,22.099
147465,2.243,2.100,22.429
147480,2.261,2.131,22.615
147495,2.283,2.159,22.835
147510,2.270,2.184,22.704
147525,2.293,2.209,22.934
147540,2.302,2.231,23.022
147555,2.314,2.250,23.144
147570,2.344,2.270,23.442
147585,2.348,2.287,23.476
147600,2.386,2.305,23.864
147615,2.375,2.318,23.750
147630,2.374,2.329,23.741
147645,2.387,2.339,23.871
147660,2.408,2.353,24.084
147675,2.332,2.357,23.319
147690,2.357,2.363,23.566
147705,2.403,2.371,24.028
147720,2.371,2.374,23.706
147735,2.366,2.376,23.656
147750,2.361,2.373,23.611
147765,2.354,2.371,23.541
147780,2.388,2.373,23.881
147795,2.393,2.373,23.934
147810,2.409,2.373,24.094
147825,2.388,2.379,23.885
147840,2.384,2.382,23.839
147855,2.377,2.379,23.769
147870,2.405,2.383,24.050
147885,2.402,2.386,24.016
147900,2.394,2.389,23.935
147915,2.401,2.394,24.009
147930,2.422,2.397,24.216
147945,2.431,2.401,24.307
147960,2.420,2.402,24.196
147975,2.431,2.406,24.306
147990,2.422,2.410,24.222
148005,2.424,2.415,24.235
148020,2.437,2.418,24.366
148035,2.440,2.422,24.401
148050,2.408,2.423,24.083
148065,2.415,2.425,24.150
148080,2.409,2.424,24.088
148095,2.417,2.422,24.171
148110,2.402,2.420,24.020
148125,2.416,2.419,24.159
148140,2.419,2.419,24.191
148155,2.425,2.419,24.253
148170,2.420,2.417,24.201
148185,2.442,2.417,24.423
148200,2.451,2.422,24.513
148215,2.431,2.423,24.312
148230,2.432,2.426,24.324
148245,2.424,2.426,24.245
148260,2.425,2.429,24.253
148275,2.405,2.428,24.048
148290,2.411,2.427,24.106
148305,2.418,2.426,24.183
148320,2.450,2.429,24.495
148335,2.458,2.431,24.580
148350,2.465,2.432,24.653
148365,2.456,2.434,24.562
148380,2.388,2.430,23.879
148395,2.545,2.442,25.448
148410,2.704,2.470,27.039
148425,2.822,2.512,28.219
148440,2.948,2.565,29.480
148455,3.030,2.627,30.298
148470,3.095,2.691,30.951
148485,3.127,2.758,31.267
148500,3.182,2.830,31.819
148515,3.199,2.904,31.994
148530,3.202,2.985,32.021
148545,3.191,3.050,31.909
148560,3.202,3.100,32.022
148575,3.165,3.134,31.655
148590,3.151,3.154,31.512
148605,3.116,3.163,31.160
148620,3.070,3.161,30.699
148635,3.062,3.154,30.619
148650,2.994,3.135,29.945
148665,2.946,3.110,29.462
148680,2.905,3.080,29.049
148695,2.840,3.045,28.404
148710,2.786,3.004,27.863
148725,2.754,2.963,27.540
148740,2.770,2.924,27.698
148755,2.717,2.884,27.169
148770,2.696,2.847,26.956
148785,2.697,2.810,26.965
148800,2.664,2.777,26.640
148815,2.624,2.745,26.236
148830,2.562,2.711,25.618
148845,2.599,2.687,25.989
148860,2.617,2.670,26.166
148875,2.589,2.653,25.886
148890,2.561,2.632,25.614
148905,2.533,2.614,25.326
148920,2.583,2.603,25.829
148935,2.558,2.589,25.577
148950,2.534,2.576,25.343
148965,2.540,2.567,25.400
148980,2.516,2.563,25.162
148995,2.505,2.554,25.049
149010,2.460,2.538,24.602
149025,2.446,2.524,24.464
149040,2.457,2.513,24.575
149055,2.446,2.505,24.462
149070,2.399,2.486,23.994
149085,2.431,2.474,24.312
149100,2.436,2.464,24.362
149115,2.437,2.454,24.370
149130,2.431,2.445,24.309
149145,2.428,2.437,24.285
149160,2.467,2.438,24.674
149175,2.433,2.437,24.327
149190,2.385,2.429,23.851
149205,2.417,2.427,24.169
149220,2.446,2.431,24.458
149235,2.415,2.430,24.149
149250,2.385,2.424,23.855
149265,2.408,2.422,24.080
149280,2.422,2.421,24.225
149295,2.394,2.417,23.944
149310,2.430,2.414,24.296
149325,2.421,2.412,24.211
149340,2.417,2.416,24.174
149355,2.399,2.414,23.995
149370,2.383,2.408,23.830
149385,2.391,2.405,23.915
149400,2.403,2.407,24.029
149415,2.396,2.406,23.962
149430,2.414,2.405,24.145
149445,2.413,2.407,24.132
149460,2.400,2.404,23.996
149475,2.409,2.403,24.089
149490,2.432,2.404,24.319
149505,2.416,2.406,24.163
149520,2.416,2.409,24.163
149535,2.426,2.413,24.256
149550,2.415,2.414,24.154
149565,2.461,2.420,24.609
149580,2.448,2.424,24.479
149595,2.454,2.428,24.536
149610,2.425,2.430,24.251
149625,2.422,2.432,24.225
149640,2.453,2.434,24.526
149655,2.417,2.434,24.174
149670,2.437,2.436,24.368
149685,2.441,2.437,24.407
149700,2.413,2.437,24.131
149715,2.452,2.436,24.521
149730,2.445,2.436,24.449
149745,2.475,2.438,24.753
149760,2.482,2.444,24.821
149775,2.454,2.447,24.543
149790,2.506,2.452,25.057
149805,2.381,2.449,23.805
149820,2.244,2.429,22.443
149835,2.134,2.399,21.336
149850,1.988,2.356,19.878
149865,1.878,2.299,18.776
149880,1.767,2.231,17.671
149895,1.703,2.154,17.030
149910,1.657,2.071,16.566
149925,1.639,1.989,16.386
149940,1.591,1.898,15.914
149955,1.637,1.824,16.372
149970,1.659,1.765,16.594
149985,1.664,1.718,16.641
150000,1.699,1.689,16.987
150015,1.719,1.674,17.194
150030,1.776,1.674,17.761
150045,1.828,1.687,18.283
150060,1.879,1.709,18.788
150075,1.887,1.734,18.866
150090,1.957,1.771,19.571
150105,1.982,1.805,19.820
150120,2.056,1.845,20.555
150135,2.085,1.887,20.846
150150,2.114,1.928,21.136
150165,2.149,1.971,21.486
150180,2.195,2.013,21.954
150195,2.209,2.051,22.092
150210,2.210,2.084,22.097
150225,2.232,2.119,22.323
150240,2.258,2.149,22.581
150255,2.280,2.179,22.796
150270,2.318,2.205,23.176
150285,2.338,2.230,23.381
150300,2.337,2.253,23.370
150315,2.325,2.270,23.247
150330,2.318,2.282,23.175
150345,2.317,2.293,23.170
150360,2.325,2.305,23.245
150375,2.374,2.319,23.737
150390,2.401,2.333,24.005
150405,2.405,2.346,24.046
150420,2.411,2.355,24.110
150435,2.399,2.361,23.995
150450,2.405,2.368,24.049
150465,2.406,2.376,24.056
150480,2.398,2.384,23.983
150495,2.413,2.394,24.128
150510,2.405,2.402,24.055
150525,2.427,2.407,24.270
150540,2.419,2.409,24.189
150555,2.430,2.411,24.298
150570,2.418,2.412,24.181
150585,2.415,2.414,24.150
150600,2.448,2.418,24.479
150615,2.483,2.426,24.829
150630,2.481,2.434,24.811
150645,2.476,2.440,24.764
150660,2.472,2.447,24.721
150675,2.444,2.449,24.436
150690,2.442,2.451,24.421
150705,2.453,2.453,24.530
150720,2.464,2.458,24.637
150735,2.456,2.462,24.557
150750,2.438,2.461,24.382
150765,2.432,2.456,24.319
150780,2.398,2.447,23.979
150795,2.378,2.438,23.785
150810,2.410,2.431,24.101
150825,2.431,2.430,24.306
150840,2.444,2.430,24.437
150855,2.437,2.429,24.369
150870,2.394,2.422,23.942
150885,2.385,2.415,23.847
150900,2.377,2.409,23.766
150915,2.405,2.406,24.053
150930,2.421,2.408,24.206
150945,2.436,2.414,24.364
150960,2.440,2.417,24.400
150975,2.406,2.414,24.061
150990,2.368,2.407,23.682
151005,2.396,2.403,23.959
151020,2.441,2.407,24.405
151035,2.462,2.415,24.616
151050,2.450,2.422,24.495
151065,2.440,2.426,24.396
151080,2.423,2.426,24.233
151095,2.396,2.422,23.958
151110,2.405,2.419,24.046
151125,2.427,2.421,24.269
151140,2.442,2.428,24.419
151155,2.405,2.429,24.053
151170,2.403,2.425,24.028
151185,2.398,2.419,23.980
151200,2.435,2.417,24.351
151215,2.324,2.406,23.240
151230,2.564,2.420,25.636
151245,2.678,2.448,26.780
151260,2.827,2.490,28.271
151275,2.979,2.545,29.791
151290,3.088,2.610,30.877
151305,3.148,2.684,31.485
151320,3.214,2.766,32.143
151335,3.250,2.851,32.499
151350,3.261,2.933,32.612
151365,3.247,3.026,32.475
151380,3.274,3.097,32.743
151395,3.226,3.152,32.255
151410,3.171,3.186,31.714
151425,3.116,3.200,31.158
151440,3.081,3.199,30.814
151455,3.037,3.188,30.370
151470,2.994,3.166,29.940
151485,2.989,3.140,29.888
151500,2.965,3.110,29.648
151515,2.895,3.075,28.955
151530,2.818,3.029,28.179
151545,2.783,2.985,27.827
151560,2.734,2.941,27.339
151575,2.699,2.899,26.986
151590,2.682,2.860,26.821
151605,2.664,2.822,26.642
151620,2.667,2.790,26.671
151635,2.596,2.750,25.960
151650,2.548,2.709,25.481
151665,2.537,2.673,25.375
151680,2.544,2.645,25.441
151695,2.543,2.621,25.425
151710,2.515,2.600,25.150
151725,2.533,2.583,25.333
151740,2.468,2.562,24.683
151755,2.457,2.541,24.574
151770,2.426,2.517,24.256
151785,2.428,2.500,24.276
151800,2.427,2.488,24.266
151815,2.458,2.480,24.579
151830,2.459,2.471,24.594
151845,2.514,2.469,25.141
151860,2.503,2.467,25.026
151875,2.482,2.462,24.819
151890,2.438,2.459,24.375
151905,2.426,2.456,24.263
151920,2.446,2.458,24.462
151935,2.465,2.462,24.646
151950,2.437,2.463,24.368
151965,2.429,2.460,24.288
151980,2.408,2.455,24.083
151995,2.405,2.444,24.046
152010,2.418,2.435,24.179
152025,2.409,2.428,24.094
152040,2.419,2.426,24.194
152055,2.407,2.424,24.066
152070,2.401,2.420,24.009
152085,2.414,2.415,24.144
152100,2.415,2.413,24.151
152115,2.410,2.411,24.104
152130,2.412,2.411,24.124
152145,2.446,2.415,24.456
152160,2.440,2.417,24.399
152175,2.409,2.417,24.091
152190,2.420,2.417,24.204
152205,2.414,2.418,24.136
152220,2.410,2.419,24.097
152235,2.429,2.421,24.292
152250,2.444,2.423,24.445
152265,2.443,2.427,24.429
152280,2.448,2.430,24.479
152295,2.440,2.430,24.397
152310,2.418,2.428,24.179
152325,2.447,2.431,24.467
152340,2.434,2.433,24.343
152355,2.453,2.437,24.529
152370,2.431,2.439,24.311
152385,2.448,2.441,24.483
152400,2.442,2.440,24.419
152415,2.398,2.436,23.977
152430,2.381,2.429,23.812
152445,2.398,2.425,23.976
152460,2.425,2.426,24.249
152475,2.434,2.424,24.336
152490,2.422,2.423,24.224
152505,2.450,2.423,24.496
152520,2.452,2.425,24.519
152535,2.438,2.424,24.382
152550,2.441,2.424,24.411
152565,2.491,2.433,24.914
152580,2.307,2.426,23.074
152595,2.196,2.406,21.956
152610,2.053,2.368,20.529
152625,1.934,2.318,19.343
152640,1.819,2.258,18.195
152655,1.733,2.187,17.330
152670,1.675,2.109,16.747
152685,1.633,2.028,16.331
152700,1.632,1.947,16.321
152715,1.602,1.859,16.025
152730,1.634,1.791,16.339
152745,1.643,1.736,16.434
152760,1.649,1.696,16.494
152775,1.651,1.667,16.513
152790,1.692,1.655,16.920
152805,1.719,1.653,17.190
152820,1.743,1.660,17.434
152835,1.824,1.679,18.239
152850,1.833,1.699,18.331
152865,1.893,1.728,18.930
152880,1.930,1.758,19.302
152895,1.961,1.790,19.609
152910,2.027,1.827,20.266
152925,2.103,1.873,21.034
152940,2.121,1.915,21.206
152955,2.145,1.958,21.445
152970,2.173,2.001,21.730
152985,2.200,2.039,21.999
153000,2.225,2.078,22.254
153015,2.256,2.114,22.557
153030,2.267,2.148,22.671
153045,2.293,2.181,22.933
153060,2.330,2.211,23.296
153075,2.336,2.235,23.359
153090,2.317,2.254,23.174
153105,2.327,2.272,23.267
153120,2.367,2.292,23.666
153135,2.367,2.308,23.669
153150,2.408,2.327,24.083
153165,2.419,2.343,24.190
153180,2.423,2.359,24.231
153195,2.425,2.372,24.250
153210,2.368,2.376,23.679
153225,2.432,2.385,24.319
153240,2.442,2.398,24.419
153255,2.463,2.411,24.625
153270,2.453,2.420,24.529
153285,2.454,2.429,24.537
153300,2.432,2.431,24.324
153315,2.435,2.433,24.346
153330,2.431,2.433,24.312
153345,2.453,2.436,24.525
153360,2.474,2.447,24.745
153375,2.436,2.447,24.360
153390,2.418,2.445,24.176
153405,2.406,2.439,24.060
153420,2.419,2.436,24.193
153435,2.379,2.428,23.795
153450,2.391,2.424,23.909
153465,2.408,2.422,24.081
153480,2.400,2.418,24.001
153495,2.423,2.415,24.230
153510,2.449,2.413,24.490
153525,2.431,2.412,24.315
153540,2.428,2.414,24.285
153555,2.401,2.413,24.005
153570,2.408,2.412,24.079
153585,2.445,2.418,24.450
153600,2.433,2.423,24.327
153615,2.441,2.426,24.415
153630,2.421,2.428,24.210
153645,2.398,2.426,23.980
153660,2.374,2.418,23.740
153675,2.391,2.414,23.912
153690,2.406,2.412,24.056
153705,2.403,2.412,24.030
153720,2.412,2.412,24.123
153735,2.410,2.409,24.101
153750,2.391,2.405,23.914
153765,2.418,2.402,24.183
153780,2.400,2.400,23.997
153795,2.393,2.400,23.926
153810,2.382,2.401,23.824
153825,2.378,2.399,23.784
153840,2.384,2.397,23.839
153855,2.394,2.396,23.935
153870,2.404,2.395,24.041
153885,2.426,2.397,24.263
153900,2.432,2.401,24.321
153915,2.401,2.399,24.007
153930,2.487,2.408,24.865
153945,2.636,2.432,26.360
153960,2.812,2.475,28.121
153975,2.948,2.532,29.478
153990,3.046,2.599,30.465
154005,3.096,2.669,30.964
154020,3.119,2.740,31.187
154035,3.122,2.810,31.215
154050,3.118,2.878,31.175
154065,3.102,2.949,31.024
154080,3.017,3.002,30.170
154095,2.921,3.030,29.215
154110,2.848,3.034,28.482
154125,2.789,3.018,27.891
154140,2.731,2.986,27.315
154155,2.667,2.943,26.674
154170,2.619,2.893,26.186
154185,2.588,2.840,25.876
154200,2.559,2.784,25.587
154215,2.623,2.736,26.228
154230,2.659,2.700,26.593
154245,2.779,2.686,27.792
154260,2.813,2.683,28.135
154275,2.846,2.689,28.465
154290,2.881,2.703,28.811
154305,2.882,2.725,28.823
154320,2.863,2.749,28.626
154335,2.817,2.772,28.166
154350,2.796,2.796,27.961
154365,2.756,2.809,27.562
154380,2.724,2.816,27.239
154395,2.716,2.809,27.159
154410,2.710,2.799,27.097
154425,2.694,2.784,26.943
154440,2.658,2.762,26.575
154455,2.638,2.737,26.381
154470,2.584,2.709,25.840
154485,2.598,2.687,25.976
154500,2.568,2.665,25.680
154515,2.532,2.642,25.322
154530,2.519,2.622,25.185
154545,2.508,2.601,25.076
154560,2.493,2.579,24.932
154575,2.474,2.557,24.741
154590,2.472,2.539,24.718
154605,2.480,2.523,24.796
154620,2.479,2.512,24.790
154635,2.479,2.500,24.794
154650,2.453,2.489,24.526
154665,2.419,2.477,24.186
154680,2.424,2.468,24.244
154695,2.403,2.458,24.026
154710,2.428,2.451,24.281
154725,2.443,2.448,24.425
154740,2.434,2.444,24.343
154755,2.429,2.439,24.294
154770,2.445,2.436,24.452
154785,2.425,2.430,24.249
154800,2.414,2.426,24.140
154815,2.413,2.426,24.131
154830,2.412,2.425,24.121
154845,2.445,2.429,24.455
154860,2.438,2.430,24.378
154875,2.445,2.430,24.454
154890,2.440,2.431,24.403
154905,2.431,2.431,24.312
154920,2.407,2.427,24.067
154935,2.380,2.423,23.799
154950,2.403,2.421,24.026
154965,2.417,2.422,24.167
154980,2.437,2.424,24.368
154995,2.413,2.421,24.132
155010,2.379,2.415,23.790
155025,2.420,2.413,24.198
155040,2.408,2.409,24.079
155055,2.405,2.407,24.045
155070,2.374,2.403,23.741
155085,2.400,2.405,24.001
155100,2.433,2.409,24.333
155115,2.413,2.408,24.131
155130,2.386,2.403,23.859
155145,2.408,2.403,24.079
155160,2.415,2.406,24.150
155175,2.419,2.406,24.189
155190,2.399,2.405,23.991
155205,2.422,2.407,24.222
155220,2.404,2.410,24.041
155235,2.444,2.414,24.437
155250,2.339,2.405,23.390
155265,2.285,2.392,22.851
155280,2.171,2.371,21.715
155295,2.001,2.330,20.011
155310,1.870,2.275,18.695
155325,1.786,2.212,17.858
155340,1.730,2.145,17.305
155355,1.710,2.074,17.096
155370,1.669,2.000,16.689
155385,1.679,1.924,16.791
155400,1.644,1.855,16.441
155415,1.646,1.791,16.458
155430,1.652,1.739,16.521
155445,1.681,1.707,16.810
155460,1.750,1.695,17.495
155475,1.814,1.698,18.145
155490,1.837,1.708,18.372
155505,1.945,1.732,19.451
155520,2.008,1.766,20.077
155535,2.088,1.806,20.875
155550,2.114,1.853,21.136
155565,2.194,1.908,21.940
155580,2.125,1.956,21.250
155595,2.099,1.997,20.994
155610,2.082,2.031,20.816
155625,2.104,2.059,21.036
155640,2.095,2.085,20.945
155655,2.105,2.101,21.047
155670,2.112,2.112,21.116
155685,2.134,2.116,21.342
155700,2.176,2.122,21.757
155715,2.189,2.122,21.891
155730,2.194,2.129,21.943
155745,2.218,2.141,22.181
155760,2.258,2.158,22.580
155775,2.266,2.175,22.664
155790,2.253,2.191,22.531
155805,2.296,2.210,22.957
155820,2.283,2.227,22.834
155835,2.312,2.245,23.120
155850,2.315,2.258,23.146
155865,2.338,2.273,23.375
155880,2.356,2.289,23.558
155895,2.375,2.305,23.755
155910,2.354,2.315,23.538
155925,2.364,2.325,23.644
155940,2.362,2.335,23.623
155955,2.384,2.344,23.841
155970,2.385,2.354,23.845
155985,2.413,2.365,24.134
156000,2.453,2.378,24.530
156015,2.412,2.386,24.125
156030,2.424,2.393,24.242
156045,2.436,2.399,24.358
156060,2.439,2.407,24.392
156075,2.444,2.415,24.444
156090,2.420,2.421,24.196
156105,2.434,2.426,24.337
156120,2.431,2.431,24.312
156135,2.461,2.435,24.611
156150,2.459,2.436,24.594
156165,2.435,2.438,24.351
156180,2.437,2.440,24.371
156195,2.421,2.438,24.214
156210,2.428,2.437,24.284
156225,2.441,2.437,24.410
156240,2.428,2.438,24.285
156255,2.431,2.437,24.307
156270,2.449,2.439,24.491
156285,2.444,2.437,24.439
156300,2.429,2.434,24.294
156315,2.422,2.433,24.221
156330,2.410,2.430,24.097
156345,2.424,2.431,24.242
156360,2.438,2.432,24.379
156375,2.421,2.430,24.207
156390,2.423,2.429,24.230
156405,2.416,2.428,24.163
156420,2.414,2.424,24.141
156435,2.461,2.426,24.605
156450,2.490,2.432,24.903
156465,2.495,2.439,24.954
156480,2.487,2.447,24.873
156495,2.474,2.452,24.741
156510,2.468,2.455,24.680
156525,2.460,2.459,24.604
156540,2.469,2.463,24.686
156555,2.385,2.460,23.847
156570,2.583,2.477,25.828
156585,2.779,2.509,27.786
156600,2.927,2.553,29.272
156615,3.035,2.607,30.350
156630,3.142,2.672,31.421
156645,3.217,2.746,32.173
156660,3.238,2.823,32.378
156675,3.198,2.897,31.984
156690,3.192,2.970,31.920
156705,3.207,3.052,32.071
156720,3.176,3.111,31.759
156735,3.155,3.149,31.554
156750,3.129,3.169,31.294
156765,3.097,3.175,30.971
156780,3.004,3.161,30.040
156795,2.913,3.131,29.128
156810,2.834,3.091,28.341
156825,2.750,3.046,27.496
156840,2.815,3.008,28.149
156855,2.828,2.970,28.282
156870,2.862,2.939,28.616
156885,2.871,2.910,28.706
156900,2.875,2.885,28.753
156915,2.789,2.854,27.889
156930,2.736,2.827,27.358
156945,2.693,2.805,26.934
156960,2.628,2.785,26.281
156975,2.587,2.768,25.871
156990,2.636,2.751,26.364
157005,2.648,2.732,26.476
157020,2.660,2.712,26.597
157035,2.664,2.692,26.636
157050,2.679,2.672,26.791
157065,2.669,2.660,26.686
157080,2.626,2.649,26.259
157095,2.588,2.638,25.882
157110,2.593,2.635,25.929
157125,2.566,2.633,25.659
157140,2.530,2.622,25.298
157155,2.519,2.609,25.194
157170,2.496,2.593,24.960
157185,2.488,2.575,24.881
157200,2.497,2.557,24.972
157215,2.490,2.539,24.896
157230,2.485,2.525,24.846
157245,2.474,2.514,24.741
157260,2.482,2.503,24.824
157275,2.448,2.491,24.476
157290,2.425,2.480,24.250
157305,2.431,2.472,24.305
157320,2.425,2.464,24.249
157335,2.417,2.457,24.170
157350,2.385,2.446,23.851
157365,2.408,2.438,24.076
157380,2.436,2.433,24.360
157395,2.438,2.429,24.385
157410,2.418,2.423,24.183
157425,2.434,2.422,24.341
157440,2.386,2.418,23.861
157455,2.372,2.412,23.719
157470,2.395,2.409,23.950
157485,2.383,2.406,23.826
157500,2.397,2.407,23.967
157515,2.397,2.406,23.972
157530,2.408,2.403,24.085
157545,2.417,2.401,24.174
157560,2.432,2.402,24.319
157575,2.441,2.403,24.405
157590,2.432,2.407,24.325
157605,2.439,2.414,24.386
157620,2.407,2.415,24.071
157635,2.397,2.417,23.971
157650,2.392,2.416,23.925
157665,2.387,2.415,23.874
157680,2.381,2.413,23.811
157695,2.375,2.408,23.747
157710,2.375,2.403,23.746
157725,2.378,2.396,23.780
157740,2.397,2.393,23.967
157755,2.416,2.391,24.161
157770,2.422,2.392,24.218
157785,2.423,2.395,24.228
157800,2.417,2.397,24.172
157815,2.467,2.405,24.666
157830,2.329,2.400,23.286
157845,2.285,2.391,22.852
157860,2.173,2.371,21.726
157875,2.038,2.337,20.379
157890,1.936,2.291,19.364
157905,1.820,2.231,18.201
157920,1.752,2.164,17.520
157935,1.699,2.092,16.989
157950,1.674,2.017,16.740
157965,1.672,1.938,16.717
157980,1.642,1.869,16.419
157995,1.622,1.803,16.218
158010,1.643,1.750,16.430
158025,1.687,1.715,16.875
158040,1.734,1.694,17.337
158055,1.772,1.690,17.720
158070,1.791,1.694,17.909
158085,1.859,1.709,18.585
158100,1.885,1.731,18.850
158115,1.921,1.756,19.214
158130,1.979,1.789,19.789
158145,2.037,1.831,20.374
158160,2.081,1.875,20.811
158175,2.098,1.916,20.979
158190,2.140,1.956,21.396
158205,2.176,1.997,21.761
158220,2.194,2.037,21.936
158235,2.221,2.073,22.213
158250,2.226,2.107,22.256
158265,2.266,2.142,22.661
158280,2.263,2.170,22.635
158295,2.246,2.191,22.456
158310,2.273,2.210,22.730
158325,2.313,2.232,23.134
158340,2.321,2.250,23.209
158355,2.335,2.266,23.351
158370,2.326,2.279,23.265
158385,2.370,2.294,23.704
158400,2.365,2.308,23.653
158415,2.357,2.317,23.566
158430,2.350,2.326,23.501
158445,2.407,2.342,24.074
158460,2.376,2.352,23.765
158475,2.376,2.358,23.761
158490,2.393,2.366,23.929
158505,2.414,2.374,24.136
158520,2.412,2.382,24.120
158535,2.419,2.387,24.191
158550,2.381,2.389,23.812
158565,2.393,2.392,23.932
158580,2.417,2.399,24.169
158595,2.420,2.400,24.198
158610,2.451,2.408,24.514
158625,2.462,2.416,24.620
158640,2.449,2.422,24.493
158655,2.413,2.422,24.128
158670,2.395,2.420,23.949
158685,2.434,2.421,24.335
158700,2.427,2.426,24.269
158715,2.423,2.429,24.234
158730,2.394,2.427,23.942
158745,2.406,2.425,24.062
158760,2.409,2.421,24.090
158775,2.382,2.413,23.815
158790,2.375,2.406,23.745
158805,2.401,2.405,24.014
158820,2.399,2.405,23.994
158835,2.412,2.403,24.120
158850,2.410,2.401,24.096
158865,2.416,2.400,24.159
158880,2.441,2.405,24.406
158895,2.438,2.408,24.381
158910,2.450,2.412,24.502
158925,2.489,2.423,24.891
158940,2.456,2.431,24.560
158955,2.433,2.434,24.329
158970,2.398,2.434,23.983
158985,2.414,2.434,24.139
159000,2.411,2.435,24.111
159015,2.414,2.434,24.135
159030,2.432,2.434,24.323
159045,2.466,2.436,24.661
159060,2.451,2.436,24.513
159075,2.448,2.432,24.480
159090,2.422,2.429,24.222
159105,2.408,2.426,24.079
159120,2.395,2.426,23.955
159135,2.393,2.424,23.931
159150,2.421,2.425,24.215
159165,2.428,2.427,24.278
159180,2.506,2.434,25.059
159195,2.655,2.453,26.549
159210,2.802,2.488,28.020
159225,2.947,2.538,29.466
159240,3.035,2.599,30.350
159255,3.063,2.665,30.630
159270,3.057,2.731,30.569
159285,3.055,2.797,30.550
159300,3.029,2.858,30.289
159315,2.933,2.908,29.333
159330,2.886,2.946,28.856
159345,2.814,2.962,28.142
159360,2.750,2.957,27.500
159375,2.694,2.932,26.944
159390,2.666,2.895,26.659
159405,2.626,2.851,26.260
159420,2.593,2.805,25.926
159435,2.545,2.754,25.452
159450,2.523,2.703,25.233
159465,2.505,2.660,25.048
159480,2.498,2.621,24.983
159495,2.490,2.589,24.895
159510,2.492,2.563,24.924
159525,2.500,2.544,25.005
159540,2.483,2.526,24.832
159555,2.409,2.504,24.086
159570,2.399,2.484,23.989
159585,2.435,2.473,24.353
159600,2.441,2.465,24.411
159615,2.445,2.459,24.452
159630,2.470,2.456,24.699
159645,2.448,2.452,24.479
159660,2.401,2.443,24.007
159675,2.383,2.431,23.831
159690,2.443,2.427,24.425
159705,2.473,2.434,24.730
159720,2.457,2.440,24.573
159735,2.442,2.440,24.420
159750,2.386,2.435,23.858
159765,2.391,2.429,23.907
159780,2.400,2.422,24.002
159795,2.415,2.419,24.153
159810,2.418,2.421,24.176
159825,2.426,2.425,24.257
159840,2.429,2.424,24.291
159855,2.402,2.417,24.023
159870,2.376,2.409,23.765
159885,2.389,2.403,23.889
159900,2.438,2.408,24.385
159915,2.386,2.408,23.860
159930,2.342,2.402,23.425
159945,2.359,2.397,23.589
159960,2.340,2.389,23.398
159975,2.358,2.382,23.579
159990,2.380,2.377,23.800
160005,2.430,2.380,24.295
160020,2.434,2.386,24.337
160035,2.405,2.387,24.048
160050,2.411,2.384,24.105
160065,2.399,2.386,23.988
160080,2.412,2.393,24.119
160095,2.414,2.398,24.145
160110,2.428,2.407,24.281
160125,2.423,2.413,24.226
160140,2.407,2.416,24.070
160155,2.403,2.413,24.030
160170,2.426,2.413,24.261
160185,2.434,2.416,24.341
160200,2.414,2.416,24.139
160215,2.412,2.417,24.125
160230,2.381,2.414,23.807
160245,2.397,2.413,23.971
160260,2.385,2.408,23.853
160275,2.404,2.406,24.037
160290,2.418,2.407,24.183
160305,2.426,2.410,24.259
160320,2.424,2.410,24.241
160335,2.418,2.408,24.181
160350,2.390,2.406,23.896
160365,2.382,2.402,23.820
160380,2.392,2.404,23.920
160395,2.446,2.408,24.458
160410,2.396,2.410,23.964
160425,2.356,2.405,23.556
160440,2.387,2.402,23.872
160455,2.269,2.386,22.694
160470,2.334,2.377,23.339
160485,2.289,2.364,22.895
160500,2.326,2.358,23.263
160515,2.306,2.350,23.056
160530,2.371,2.348,23.705
160545,2.375,2.341,23.746
160560,2.397,2.341,23.970
160575,2.334,2.339,23.337
160590,2.373,2.337,23.728
160605,2.406,2.351,24.058
160620,2.375,2.355,23.747
160635,2.443,2.370,24.434
160650,2.428,2.381,24.279
160665,2.456,2.396,24.564
160680,2.436,2.402,24.360
160695,2.446,2.409,24.458
160710,2.408,2.410,24.085
160725,2.409,2.418,24.091
160740,2.415,2.422,24.148
160755,2.443,2.426,24.426
160770,2.451,2.434,24.511
160785,2.445,2.434,24.451
160800,2.433,2.434,24.334
160815,2.419,2.431,24.193
160830,2.430,2.430,24.299
160845,2.460,2.431,24.596
160860,2.434,2.434,24.343
160875,2.417,2.435,24.169
160890,2.415,2.435,24.153
160905,2.415,2.432,24.148
160920,2.421,2.429,24.207
160935,2.416,2.426,24.161
160950,2.438,2.426,24.376
160965,2.447,2.429,24.474
160980,2.427,2.429,24.269
160995,2.404,2.423,24.039
161010,2.414,2.421,24.145
161025,2.399,2.420,23.994
161040,2.436,2.422,24.358
161055,2.445,2.425,24.455
161070,2.431,2.426,24.309
161085,2.436,2.428,24.358
161100,2.430,2.427,24.295
161115,2.421,2.424,24.207
161130,2.434,2.425,24.340
161145,2.456,2.430,24.562
161160,2.434,2.432,24.345
161175,2.431,2.435,24.309
161190,2.451,2.437,24.515
161205,2.447,2.437,24.469
161220,2.440,2.438,24.400
161235,2.425,2.437,24.250
161250,2.428,2.437,24.278
161265,2.430,2.438,24.302
161280,2.424,2.437,24.244
161295,2.432,2.434,24.324
161310,2.422,2.433,24.216
161325,2.436,2.434,24.362
161340,2.428,2.431,24.285
161355,2.405,2.427,24.055
161370,2.399,2.423,23.989
161385,2.402,2.421,24.018
161400,2.381,2.416,23.806
161415,2.395,2.412,23.950
161430,2.418,2.412,24.183
161445,2.438,2.412,24.375
161460,2.424,2.413,24.242
161475,2.318,2.401,23.182
161490,2.491,2.407,24.908
161505,2.598,2.426,25.977
161520,2.699,2.456,26.990
161535,2.777,2.494,27.766
161550,2.851,2.541,28.512
161565,2.862,2.588,28.616
161580,2.866,2.632,28.658
161595,2.860,2.675,28.599
161610,2.895,2.722,28.948
161625,2.903,2.780,29.029
161640,2.870,2.818,28.704
161655,2.824,2.841,28.244
161670,2.806,2.851,28.056
161685,2.780,2.852,27.796
161700,2.763,2.843,27.635
161715,2.755,2.832,27.546
161730,2.721,2.818,27.206
161745,2.702,2.802,27.021
161760,2.694,2.782,26.935
161775,2.647,2.756,26.469
161790,2.618,2.731,26.185
161805,2.612,2.710,26.125
161820,2.604,2.690,26.039
161835,2.551,2.667,25.513
161850,2.518,2.642,25.179
161865,2.521,2.619,25.214
161880,2.488,2.596,24.880
161895,2.467,2.572,24.669
161910,2.474,2.550,24.739
161925,2.483,2.534,24.832
161940,2.469,2.519,24.692
161955,2.453,2.503,24.525
161970,2.464,2.489,24.639
161985,2.443,2.478,24.430
162000,2.431,2.469,24.306
162015,2.454,2.463,24.545
162030,2.472,2.461,24.720
162045,2.458,2.460,24.581
162060,2.451,2.458,24.508
162075,2.456,2.455,24.559
162090,2.440,2.452,24.395
162105,2.460,2.453,24.597
162120,2.459,2.452,24.589
162135,2.444,2.452,24.445
162150,2.458,2.455,24.578
162165,2.461,2.456,24.611
162180,2.454,2.454,24.545
162195,2.441,2.452,24.409
162210,2.447,2.452,24.475
162225,2.441,2.451,24.406
162240,2.434,2.450,24.339
162255,2.411,2.445,24.106
162270,2.408,2.440,24.085
162285,2.392,2.435,23.919
162300,2.428,2.432,24.279
162315,2.430,2.429,24.300
162330,2.428,2.426,24.283
162345,2.437,2.426,24.370
162360,2.439,2.425,24.394
162375,2.442,2.425,24.419
162390,2.445,2.426,24.455
162405,2.430,2.428,24.300
162420,2.427,2.430,24.272
162435,2.417,2.432,24.166
162450,2.427,2.432,24.266
162465,2.408,2.430,24.079
162480,2.391,2.426,23.909
162495,2.402,2.423,24.025
162510,2.387,2.418,23.866
162525,2.399,2.413,23.990
162540,2.379,2.407,23.795
162555,2.394,2.403,23.937
162570,2.440,2.404,24.404
162585,2.466,2.409,24.660
162600,2.449,2.412,24.490
162615,2.429,2.414,24.291
162630,2.485,2.423,24.847
162645,2.302,2.413,23.016
162660,2.163,2.391,21.632
162675,2.060,2.357,20.597
162690,1.933,2.312,19.327
162705,1.859,2.259,18.589
162720,1.806,2.195,18.060
162735,1.795,2.128,17.948
162750,1.756,2.059,17.557
162765,1.758,1.992,17.576
162780,1.760,1.919,17.599
162795,1.780,1.867,17.804
162810,1.789,1.829,17.886
162825,1.801,1.804,18.013
162840,1.826,1.793,18.260
162855,1.858,1.793,18.576
162870,1.910,1.803,19.096
162885,1.913,1.815,19.128
162900,1.952,1.835,19.525
162915,1.985,1.857,19.850
162930,2.001,1.881,20.007
162945,1.973,1.901,19.727
162960,2.013,1.923,20.135
162975,2.038,1.947,20.378
162990,2.061,1.970,20.612
163005,2.078,1.992,20.776
163020,2.102,2.012,21.021
163035,2.106,2.031,21.062
163050,2.117,2.047,21.169
163065,2.161,2.065,21.613
163080,2.116,2.077,21.161
163095,2.116,2.091,21.159
163110,2.113,2.101,21.129
163125,2.168,2.114,21.683
163140,2.188,2.126,21.875
163155,2.208,2.140,22.080
163170,2.248,2.154,22.476
163185,2.273,2.171,22.731
163200,2.281,2.187,22.808
163215,2.308,2.202,23.076
163230,2.316,2.222,23.165
163245,2.346,2.245,23.459
163260,2.344,2.268,23.437
163275,2.385,2.290,23.854
163290,2.418,2.313,24.175
163305,2.431,2.335,24.315
163320,2.449,2.355,24.493
163335,2.445,2.372,24.446
163350,2.426,2.387,24.256
163365,2.439,2.400,24.391
163380,2.438,2.412,24.375
163395,2.434,2.421,24.335
163410,2.456,2.432,24.556
163425,2.451,2.439,24.510
163440,2.465,2.443,24.648
163455,2.439,2.444,24.386
163470,2.444,2.443,24.441
163485,2.478,2.447,24.778
163500,2.464,2.451,24.637
163515,2.459,2.453,24.594
163530,2.452,2.454,24.517
163545,2.455,2.456,24.552
163560,2.464,2.457,24.643
163575,2.452,2.457,24.517
163590,2.478,2.458,24.778
163605,2.479,2.463,24.794
163620,2.470,2.465,24.700
163635,2.475,2.465,24.753
163650,2.471,2.466,24.708
163665,2.466,2.466,24.657
163680,2.486,2.470,24.862
163695,2.509,2.475,25.094
163710,2.510,2.480,25.101
163725,2.476,2.482,24.760
163740,2.460,2.480,24.595
163755,2.373,2.470,23.728
163770,2.572,2.480,25.725
163785,2.719,2.504,27.190
163800,2.858,2.543,28.582
163815,2.945,2.591,29.455
163830,3.057,2.648,30.571
163845,3.111,2.708,31.110
163860,3.152,2.772,31.518
163875,3.140,2.839,31.396
163890,3.157,2.908,31.572
163905,3.165,2.988,31.649
163920,3.156,3.046,31.558
163935,3.119,3.086,31.187
163950,3.111,3.111,31.110
163965,3.069,3.124,30.695
163980,3.019,3.120,30.189
163995,2.980,3.107,29.800
164010,2.926,3.084,29.256
164025,2.847,3.055,28.471
164040,2.779,3.017,27.790
164055,2.719,2.972,27.189
164070,2.648,2.922,26.475
164085,2.646,2.874,26.456
164100,2.602,2.823,26.024
164115,2.571,2.774,25.710
164130,2.550,2.727,25.498
164145,2.510,2.680,25.105
164160,2.589,2.646,25.894
164175,2.659,2.627,26.591
164190,2.692,2.619,26.916
164205,2.682,2.615,26.820
164220,2.655,2.616,26.549
164235,2.660,2.617,26.599
164250,2.678,2.625,26.775
164265,2.660,2.633,26.597
164280,2.637,2.642,26.372
164295,2.626,2.654,26.265
164310,2.602,2.655,26.019
164325,2.604,2.650,26.041
164340,2.561,2.636,25.608
164355,2.558,2.624,25.580
164370,2.544,2.613,25.440
164385,2.556,2.603,25.559
164400,2.542,2.589,25.424
164415,2.523,2.575,25.226
164430,2.503,2.562,25.031
164445,2.505,2.550,25.046
164460,2.526,2.542,25.259
164475,2.494,2.531,24.940
164490,2.478,2.523,24.783
164505,2.477,2.515,24.766
164520,2.486,2.509,24.862
164535,2.495,2.503,24.948
164550,2.496,2.498,24.956
164565,2.460,2.492,24.600
164580,2.418,2.483,24.175
164595,2.411,2.474,24.107
164610,2.404,2.462,24.039
164625,2.410,2.453,24.100
164640,2.376,2.443,23.765
164655,2.381,2.434,23.811
164670,2.370,2.422,23.698
164685,2.390,2.412,23.901
164700,2.370,2.399,23.698
164715,2.372,2.390,23.720
164730,2.389,2.387,23.890
164745,2.418,2.388,24.177
164760,2.398,2.387,23.981
164775,2.383,2.385,23.831
164790,2.378,2.385,23.785
164805,2.408,2.388,24.079
164820,2.408,2.391,24.077
164835,2.399,2.392,23.991
164850,2.410,2.396,24.104
164865,2.423,2.401,24.228
164880,2.384,2.401,23.837
164895,2.360,2.395,23.603
164910,2.354,2.391,23.540
164925,2.411,2.394,24.107
164940,2.421,2.398,24.207
164955,2.408,2.398,24.075
164970,2.389,2.396,23.886
164985,2.473,2.403,24.734
165000,2.327,2.395,23.267
165015,2.167,2.369,21.667
165030,1.985,2.329,19.851
165045,1.895,2.283,18.950
165060,1.776,2.225,17.755
165075,1.689,2.153,16.885
165090,1.636,2.074,16.362
165105,1.624,1.996,16.237
165120,1.633,1.920,16.330
165135,1.645,1.838,16.450
165150,1.684,1.773,16.843
165165,1.724,1.729,17.237
165180,1.724,1.703,17.243
165195,1.777,1.691,17.771
165210,1.816,1.695,18.163
165225,1.894,1.716,18.936
165240,1.926,1.745,19.264
165255,1.959,1.778,19.591
165270,2.008,1.816,20.076
165285,2.052,1.856,20.515
165300,2.066,1.895,20.659
165315,2.097,1.932,20.971
165330,2.123,1.972,21.228
165345,2.165,2.011,21.655
165360,2.181,2.047,21.814
165375,2.187,2.076,21.872
165390,2.182,2.102,21.816
165405,2.196,2.126,21.964
165420,2.207,2.146,22.073
165435,2.211,2.162,22.111
165450,2.222,2.177,22.219
165465,2.224,2.190,22.240
165480,2.219,2.200,22.194
165495,2.207,2.204,22.074
165510,2.229,2.208,22.286
165525,2.278,2.218,22.782
165540,2.265,2.226,22.653
165555,2.280,2.234,22.803
165570,2.325,2.246,23.245
165585,2.325,2.257,23.251
165600,2.383,2.274,23.829
165615,2.338,2.285,23.376
165630,2.404,2.303,24.044
165645,2.369,2.320,23.687
165660,2.378,2.334,23.776
165675,2.371,2.344,23.712
165690,2.409,2.358,24.089
165705,2.440,2.374,24.404
165720,2.417,2.383,24.166
165735,2.432,2.394,24.323
165750,2.440,2.400,24.399
165765,2.443,2.410,24.429
165780,2.409,2.411,24.091
165795,2.447,2.419,24.470
165810,2.457,2.427,24.574
165825,2.442,2.434,24.419
165840,2.440,2.437,24.396
165855,2.444,2.437,24.436
165870,2.450,2.440,24.501
165885,2.423,2.439,24.229
165900,2.424,2.438,24.242
165915,2.448,2.438,24.483
165930,2.450,2.442,24.496
165945,2.447,2.442,24.472
165960,2.451,2.442,24.506
165975,2.452,2.443,24.522
165990,2.442,2.443,24.423
166005,2.443,2.443,24.425
166020,2.475,2.446,24.754
166035,2.484,2.452,24.839
166050,2.487,2.458,24.866
166065,2.372,2.450,23.725
166080,2.594,2.465,25.944
166095,2.792,2.499,27.915
166110,2.931,2.547,29.307
166125,2.990,2.601,29.897
166140,3.062,2.663,30.624
166155,3.091,2.728,30.910
166170,3.174,2.798,31.737
166185,3.176,2.867,31.764
166200,3.178,2.936,31.784
166215,3.134,3.012,31.344
166230,3.079,3.061,30.791
166245,3.051,3.087,30.506
166260,2.989,3.092,29.891
166275,2.911,3.085,29.115
166290,2.863,3.065,28.629
166305,2.793,3.035,27.935
166320,2.723,2.990,27.231
166335,2.688,2.941,26.885
166350,2.648,2.888,26.476
166365,2.612,2.836,26.124
166380,2.592,2.787,25.923
166395,2.566,2.739,25.663
166410,2.547,2.694,25.469
166425,2.558,2.659,25.581
166440,2.508,2.624,25.083
166455,2.511,2.595,25.114
166470,2.508,2.574,25.077
166485,2.505,2.556,25.046
166500,2.492,2.540,24.917
166515,2.460,2.525,24.601
166530,2.423,2.508,24.229
166545,2.549,2.506,25.489
166560,2.656,2.517,26.559
166575,2.706,2.532,27.059
166590,2.770,2.558,27.700
166605,2.766,2.583,27.661
166620,2.730,2.606,27.302
166635,2.690,2.624,26.897
166650,2.718,2.647,27.178
166665,2.701,2.671,27.013
166680,2.718,2.700,27.181
166695,2.697,2.715,26.971
166710,2.669,2.717,26.687
166725,2.631,2.709,26.305
166740,2.619,2.694,26.187
166755,2.610,2.678,26.096
166770,2.580,2.663,25.800
166785,2.572,2.651,25.725
166800,2.543,2.634,25.425
166815,2.551,2.619,25.511
166830,2.537,2.601,25.370
166845,2.505,2.582,25.048
166860,2.496,2.564,24.958
166875,2.501,2.551,25.015
166890,2.462,2.536,24.616
166905,2.436,2.518,24.359
166920,2.449,2.505,24.494
166935,2.461,2.494,24.605
166950,2.431,2.483,24.310
166965,2.416,2.469,24.164
166980,2.387,2.454,23.872
166995,2.345,2.438,23.445
167010,2.368,2.426,23.681
167025,2.368,2.412,23.679
167040,2.368,2.403,23.675
167055,2.380,2.397,23.802
167070,2.387,2.391,23.869
167085,2.463,2.391,24.630
167100,2.280,2.376,22.803
167115,2.120,2.347,21.196
167130,2.023,2.310,20.235
167145,1.913,2.267,19.126
167160,1.821,2.212,18.214
167175,1.766,2.152,17.660
167190,1.764,2.092,17.639
167205,1.747,2.028,17.472
167220,1.756,1.965,17.556
167235,1.870,1.906,18.705
167250,1.945,1.873,19.451
167265,2.015,1.862,20.149
167280,2.074,1.867,20.740
167295,2.124,1.888,21.244
167310,2.154,1.922,21.542
167325,2.233,1.968,22.327
167340,2.178,2.010,21.775
167355,2.106,2.046,21.060
167370,2.112,2.081,21.117
167385,2.133,2.107,21.334
167400,2.165,2.129,21.648
167415,2.186,2.146,21.861
167430,2.219,2.161,22.186
167445,2.253,2.174,22.534
167460,2.289,2.187,22.885
167475,2.326,2.197,23.263
167490,2.318,2.211,23.181
167505,2.340,2.234,23.399
167520,2.354,2.258,23.540
167535,2.311,2.276,23.110
167550,2.237,2.283,22.373
167565,2.159,2.281,21.586
167580,2.111,2.270,21.112
167595,2.112,2.256,21.125
167610,2.114,2.238,21.138
167625,2.152,2.221,21.516
167640,2.144,2.203,21.442
167655,2.161,2.186,21.615
167670,2.197,2.170,21.972
167685,2.227,2.162,22.275
167700,2.244,2.162,22.444
167715,2.278,2.174,22.782
167730,2.227,2.186,22.271
167745,2.184,2.193,21.841
167760,2.147,2.196,21.470
167775,2.125,2.194,21.247
167790,2.118,2.191,21.180
167805,2.148,2.190,21.485
167820,2.162,2.186,21.624
167835,2.195,2.183,21.946
167850,2.235,2.182,22.354
167865,2.245,2.179,22.450
167880,2.257,2.182,22.566
167895,2.279,2.191,22.789
167910,2.282,2.205,22.817
167925,2.323,2.224,23.229
167940,2.311,2.244,23.108
167955,2.323,2.261,23.233
167970,2.361,2.281,23.606
167985,2.362,2.298,23.616
168000,2.376,2.312,23.765
168015,2.371,2.324,23.706
168030,2.410,2.340,24.097
168045,2.427,2.354,24.271
168060,2.418,2.368,24.183
168075,2.455,2.381,24.549
168090,2.426,2.393,24.263
168105,2.437,2.404,24.369
168120,2.434,2.412,24.335
168135,2.428,2.418,24.276
168150,2.437,2.424,24.366
168165,2.439,2.431,24.391
168180,2.440,2.434,24.404
168195,2.362,2.428,23.624
168210,2.431,2.429,24.306
168225,2.552,2.439,25.520
168240,2.702,2.466,27.017
168255,2.837,2.506,28.372
168270,2.938,2.557,29.385
168285,3.011,2.615,30.111
168300,3.049,2.676,30.491
168315,3.042,2.736,30.416
168330,3.003,2.793,30.030
168345,2.995,2.856,29.950
168360,2.894,2.902,28.939
168375,2.855,2.933,28.545
168390,2.793,2.942,27.934
168405,2.751,2.933,27.511
168420,2.674,2.907,26.737
168435,2.613,2.867,26.132
168450,2.541,2.816,25.409
168465,2.652,2.777,26.525
168480,2.758,2.753,27.579
168495,2.795,2.733,27.949
168510,2.805,2.724,28.046
168525,2.729,2.711,27.291
168540,2.679,2.700,26.792
168555,2.637,2.688,26.372
168570,2.613,2.682,26.130
168585,2.623,2.683,26.231
168600,2.584,2.688,25.839
168615,2.652,2.688,26.525
168630,2.717,2.683,27.170
168645,2.745,2.678,27.451
168660,2.743,2.672,27.427
168675,2.766,2.676,27.655
168690,2.778,2.686,27.780
168705,2.771,2.699,27.709
168720,2.716,2.709,27.157
168735,2.697,2.717,26.974
168750,2.687,2.727,26.866
168765,2.674,2.729,26.736
168780,2.659,2.723,26.589
168795,2.648,2.714,26.485
168810,2.631,2.703,26.312
168825,2.617,2.688,26.166
168840,2.598,2.670,25.976
168855,2.567,2.649,25.669
168870,2.536,2.631,25.355
168885,2.522,2.614,25.222
168900,2.477,2.593,24.767
168915,2.495,2.575,24.948
168930,2.489,2.558,24.889
168945,2.483,2.541,24.832
168960,2.475,2.526,24.746
168975,2.476,2.512,24.761
168990,2.464,2.498,24.645
169005,2.443,2.486,24.432
169020,2.420,2.474,24.200
169035,2.432,2.465,24.323
169050,2.429,2.461,24.288
169065,2.428,2.454,24.285
169080,2.440,2.449,24.395
169095,2.415,2.442,24.153
169110,2.407,2.435,24.067
169125,2.385,2.426,23.850
169140,2.364,2.416,23.638
169155,2.391,2.411,23.906
169170,2.412,2.410,24.121
169185,2.418,2.409,24.180
169200,2.416,2.408,24.164
169215,2.397,2.404,23.965
169230,2.397,2.400,23.965
169245,2.399,2.398,23.994
169260,2.253,2.383,22.531
169275,2.050,2.350,20.504
169290,1.938,2.307,19.382
169305,1.896,2.258,18.961
169320,1.811,2.198,18.115
169335,1.739,2.130,17.394
169350,1.699,2.058,16.991
169365,1.707,1.989,17.075
169380,1.711,1.921,17.110
169395,1.750,1.856,17.499
169410,1.786,1.809,17.861
169425,1.814,1.785,18.139
169440,1.839,1.775,18.385
169455,1.912,1.777,19.119
169470,2.012,1.797,20.119
169485,2.091,1.832,20.907
169500,2.124,1.875,21.239
169515,2.175,1.921,21.755
169530,2.197,1.970,21.969
169545,2.156,2.010,21.556
169560,2.115,2.043,21.150
169575,2.149,2.077,21.493
169590,2.194,2.112,21.940
169605,2.243,2.146,22.427
169620,2.264,2.171,22.644
169635,2.295,2.191,22.946
169650,2.317,2.210,23.169
169665,2.332,2.226,23.315
169680,2.359,2.242,23.594
169695,2.344,2.261,23.441
169710,2.329,2.283,23.289
169725,2.334,2.301,23.336
169740,2.323,2.314,23.226
169755,2.301,2.320,23.013
169770,2.294,2.323,22.944
169785,2.327,2.326,23.272
169800,2.353,2.330,23.529
169815,2.346,2.331,23.461
169830,2.355,2.331,23.545
169845,2.348,2.331,23.479
169860,2.341,2.332,23.409
169875,2.371,2.336,23.714
169890,2.346,2.338,23.460
169905,2.287,2.337,22.874
169920,2.286,2.336,22.857
169935,2.258,2.329,22.577
169950,2.264,2.320,22.638
169965,2.215,2.307,22.149
169980,2.201,2.292,22.011
169995,2.217,2.279,22.175
170010,2.201,2.265,22.008
170025,2.212,2.249,22.122
170040,2.185,2.233,21.847
170055,2.193,2.223,21.927
170070,2.214,2.216,22.135
170085,2.263,2.216,22.630
170100,2.250,2.215,22.500
170115,2.287,2.222,22.875
170130,2.296,2.232,22.963
170145,2.319,2.242,23.194
170160,2.295,2.251,22.948
170175,2.293,2.260,22.935
170190,2.367,2.278,23.671
170205,2.359,2.294,23.590
170220,2.391,2.312,23.906
170235,2.369,2.323,23.689
170250,2.340,2.332,23.401
170265,2.403,2.343,24.031
170280,2.395,2.353,23.950
170295,2.401,2.361,24.010
170310,2.374,2.369,23.741
170325,2.385,2.378,23.845
170340,2.376,2.379,23.760
170355,2.375,2.381,23.755
170370,2.403,2.382,24.028
170385,2.431,2.388,24.314
170400,2.415,2.396,24.153
170415,2.413,2.397,24.126
170430,2.435,2.401,24.354
170445,2.421,2.403,24.205
170460,2.431,2.408,24.309
170475,2.435,2.414,24.351
170490,2.424,2.418,24.242
170505,2.449,2.426,24.490
170520,2.443,2.430,24.429
170535,2.416,2.428,24.164
170550,2.451,2.432,24.510
170565,2.411,2.432,24.114
170580,2.583,2.446,25.828
170595,2.738,2.478,27.381
170610,2.851,2.520,28.507
170625,2.945,2.571,29.452
170640,2.962,2.625,29.618
170655,2.975,2.678,29.751
170670,3.014,2.735,30.138
170685,3.040,2.797,30.398
170700,3.039,2.856,30.387
170715,3.003,2.915,30.034
170730,2.951,2.952,29.506
170745,2.963,2.974,29.629
170760,2.925,2.982,29.251
170775,2.900,2.977,29.000
170790,2.873,2.968,28.733
170805,2.872,2.958,28.720
170820,2.775,2.934,27.747
170835,2.721,2.902,27.209
170850,2.693,2.868,26.930
170865,2.658,2.833,26.577
170880,2.616,2.800,26.164
170895,2.595,2.763,25.945
170910,2.532,2.723,25.319
170925,2.629,2.696,26.291
170940,2.654,2.674,26.542
170955,2.698,2.657,26.981
170970,2.745,2.654,27.448
170985,2.765,2.658,27.650
171000,2.754,2.665,27.536
171015,2.712,2.670,27.122
171030,2.754,2.684,27.539
171045,2.753,2.700,27.534
171060,2.736,2.720,27.361
171075,2.705,2.728,27.050
171090,2.692,2.731,26.919
171105,2.630,2.725,26.302
171120,2.608,2.711,26.084
171135,2.595,2.694,25.950
171150,2.584,2.677,25.836
171165,2.585,2.664,25.845
171180,2.613,2.650,26.126
171195,2.586,2.633,25.860
171210,2.612,2.621,26.117
171225,2.543,2.605,25.431
171240,2.502,2.586,25.024
171255,2.521,2.575,25.206
171270,2.544,2.568,25.440
171285,2.511,2.560,25.114
171300,2.502,2.552,25.021
171315,2.501,2.543,25.006
171330,2.507,2.533,25.074
171345,2.497,2.524,24.974
171360,2.482,2.511,24.816
171375,2.485,2.505,24.846
171390,2.513,2.506,25.130
171405,2.509,2.505,25.090
171420,2.513,2.502,25.127
171435,2.474,2.498,24.745
171450,2.450,2.493,24.495
171465,2.443,2.487,24.426
171480,2.463,2.483,24.630
171495,2.475,2.481,24.746
171510,2.457,2.478,24.573
171525,2.450,2.475,24.495
171540,2.440,2.467,24.404
171555,2.422,2.459,24.216
171570,2.432,2.451,24.321
171585,2.409,2.444,24.090
171600,2.412,2.440,24.118
171615,2.443,2.440,24.432
171630,2.417,2.436,24.169
171645,2.408,2.429,24.085
171660,2.395,2.423,23.950
171675,2.411,2.419,24.106
171690,2.388,2.414,23.879
171705,2.436,2.415,24.360
171720,2.427,2.415,24.271
171735,2.406,2.414,24.060
171750,2.353,2.408,23.535
171765,2.385,2.403,23.849
171780,2.368,2.398,23.685
171795,2.394,2.396,23.936
171810,2.385,2.395,23.850
171825,2.259,2.380,22.589
171840,2.177,2.359,21.772
171855,2.077,2.323,20.767
171870,1.964,2.277,19.635
171885,1.909,2.227,19.089
171900,1.855,2.177,18.555
171915,1.809,2.120,18.089
171930,1.841,2.067,18.406
171945,1.834,2.011,18.336
171960,1.826,1.955,18.264
171975,1.850,1.914,18.501
171990,1.891,1.886,18.913
172005,1.935,1.871,19.351
172020,1.925,1.868,19.247
172035,1.949,1.872,19.490
172050,1.966,1.883,19.661
172065,2.012,1.903,20.119
172080,2.027,1.922,20.274
172095,2.044,1.943,20.439
172110,2.091,1.969,20.911
172125,2.128,1.997,21.280
172140,2.137,2.021,21.368
172155,2.129,2.041,21.290
172170,2.188,2.067,21.881
172185,2.195,2.092,21.948
172200,2.243,2.119,22.426
172215,2.276,2.146,22.761
172230,2.309,2.174,23.090
172245,2.274,2.197,22.740
172260,2.222,2.210,22.218
172275,2.214,2.219,22.136
172290,2.252,2.230,22.520
172305,2.231,2.240,22.308
172320,2.190,2.240,21.903
172335,2.211,2.242,22.111
172350,2.220,2.240,22.205
172365,2.235,2.236,22.351
172380,2.225,2.227,22.249
172395,2.212,2.221,22.124
172410,2.201,2.219,22.010
172425,2.175,2.215,21.749
172440,2.201,2.210,22.015
172455,2.211,2.208,22.115
172470,2.230,2.212,22.300
172485,2.228,2.214,22.276
172500,2.248,2.217,22.478
172515,2.268,2.220,22.679
172530,2.294,2.227,22.940
172545,2.318,2.237,23.180
172560,2.322,2.249,23.216
172575,2.326,2.265,23.265
172590,2.335,2.278,23.349
172605,2.359,2.293,23.593
172620,2.357,2.305,23.566
172635,2.387,2.321,23.869
172650,2.407,2.337,24.065
172665,2.411,2.352,24.110
172680,2.385,2.361,23.850
172695,2.404,2.369,24.041
172710,2.389,2.376,23.889
172725,2.396,2.383,23.956
172740,2.415,2.391,24.148
172755,2.423,2.397,24.229
172770,2.451,2.407,24.508
172785,2.411,2.409,24.110
172800,2.407,2.409,24.072
172815,2.442,2.412,24.420
172830,2.445,2.418,24.454
172845,2.454,2.423,24.536
172860,2.453,2.430,24.526
172875,2.365,2.426,23.647
172890,2.521,2.437,25.206
172905,2.577,2.453,25.771
172920,2.684,2.476,26.839
172935,2.792,2.514,27.920
172950,2.900,2.563,29.001
172965,2.947,2.614,29.469
172980,2.984,2.668,29.840
172995,2.993,2.722,29.934
173010,2.990,2.775,29.900
173025,3.017,2.840,30.168
173040,2.986,2.887,29.860
173055,2.975,2.927,29.746
173070,2.959,2.954,29.594
173085,2.924,2.968,29.239
173100,2.916,2.969,29.160
173115,2.872,2.962,28.721
173130,2.830,2.946,28.300
173145,2.761,2.923,27.610
173160,2.694,2.893,26.940
173175,2.635,2.855,26.353
173190,2.590,2.816,25.898
173205,2.559,2.774,25.595
173220,2.535,2.732,25.346
173235,2.575,2.697,25.750
173250,2.652,2.670,26.520
173265,2.716,2.655,27.162
173280,2.714,2.643,27.145
173295,2.727,2.640,27.265
173310,2.711,2.641,27.108
173325,2.721,2.650,27.206
173340,2.730,2.664,27.296
173355,2.728,2.681,27.279
173370,2.690,2.696,26.903
173385,2.663,2.705,26.630
173400,2.705,2.710,27.054
173415,2.677,2.707,26.765
173430,2.654,2.700,26.539
173445,2.626,2.690,26.265
173460,2.618,2.681,26.181
173475,2.601,2.669,26.011
173490,2.612,2.657,26.120
173505,2.612,2.646,26.119
173520,2.551,2.632,25.514
173535,2.549,2.621,25.486
173550,2.529,2.603,25.291
173565,2.524,2.588,25.240
173580,2.479,2.570,24.792
173595,2.463,2.554,24.632
173610,2.432,2.535,24.324
173625,2.430,2.518,24.301
173640,2.433,2.500,24.330
173655,2.396,2.479,23.960
173670,2.434,2.467,24.336
173685,2.448,2.457,24.485
173700,2.450,2.449,24.499
173715,2.416,2.438,24.160
173730,2.431,2.433,24.311
173745,2.408,2.428,24.084
173760,2.399,2.425,23.986
173775,2.406,2.422,24.064
173790,2.413,2.420,24.128
173805,2.428,2.423,24.280
173820,2.389,2.419,23.890
173835,2.400,2.414,24.002
173850,2.393,2.408,23.926
173865,2.385,2.405,23.854
173880,2.360,2.398,23.604
173895,2.361,2.393,23.611
173910,2.315,2.385,23.153
173925,2.311,2.376,23.114
173940,2.296,2.364,22.959
173955,2.157,2.337,21.569
173970,2.032,2.301,20.316
173985,1.910,2.252,19.099
174000,1.849,2.198,18.486
174015,1.774,2.136,17.740
174030,1.782,2.079,17.816
174045,1.782,2.021,17.821
174060,1.781,1.967,17.814
174075,1.755,1.912,17.548
174090,1.774,1.859,17.740
174105,1.810,1.825,18.097
174120,1.839,1.806,18.391
174135,1.872,1.802,18.724
174150,1.948,1.812,19.481
174165,1.988,1.833,19.882
174180,2.016,1.857,20.165
174195,2.053,1.884,20.528
174210,2.102,1.916,21.015
174225,2.139,1.954,21.390
174240,2.191,1.996,21.915
174255,2.206,2.035,22.057
174270,2.274,2.079,22.740
174285,2.298,2.122,22.983
174300,2.318,2.158,23.175
174315,2.305,2.190,23.046
174330,2.295,2.218,22.950
174345,2.249,2.238,22.490
174360,2.241,2.252,22.411
174375,2.307,2.268,23.073
174390,2.341,2.283,23.412
174405,2.347,2.297,23.466
174420,2.348,2.305,23.481
174435,2.351,2.310,23.510
174450,2.353,2.314,23.534
174465,2.292,2.312,22.919
174480,2.237,2.307,22.370
174495,2.219,2.304,22.190
174510,2.189,2.298,21.891
174525,2.182,2.286,21.819
174540,2.181,2.270,21.811
174555,2.206,2.256,22.059
174570,2.199,2.241,21.987
174585,2.189,2.225,21.890
174600,2.193,2.209,21.925
174615,2.225,2.202,22.249
174630,2.221,2.200,22.215
174645,2.233,2.202,22.334
174660,2.236,2.207,22.364
174675,2.244,2.213,22.439
174690,2.287,2.223,22.869
174705,2.268,2.230,22.681
174720,2.284,2.238,22.844
174735,2.291,2.248,22.914
174750,2.300,2.259,22.996
174765,2.306,2.267,23.056
174780,2.300,2.275,22.996
174795,2.321,2.284,23.210
174810,2.345,2.295,23.450
174825,2.349,2.305,23.490
174840,2.360,2.312,23.597
174855,2.391,2.325,23.910
174870,2.377,2.334,23.774
174885,2.383,2.343,23.834
174900,2.384,2.352,23.835
174915,2.375,2.358,23.750
174930,2.417,2.370,24.167
174945,2.440,2.382,24.404
174960,2.432,2.391,24.324
174975,2.439,2.400,24.390
174990,2.481,2.412,24.811
175005,2.465,2.419,24.650
175020,2.417,2.423,24.167
175035,2.443,2.429,24.434
175050,2.460,2.437,24.600
175065,2.447,2.444,24.470
175080,2.479,2.450,24.789
175095,2.484,2.455,24.838
175110,2.482,2.460,24.820
175125,2.467,2.463,24.673
175140,2.436,2.458,24.361
175155,2.447,2.456,24.467
175170,2.465,2.461,24.648
175185,2.489,2.466,24.886
175200,2.568,2.476,25.677
175215,2.510,2.483,25.101
175230,2.563,2.491,25.625
175245,2.693,2.512,26.926
175260,2.753,2.539,27.530
175275,2.733,2.566,27.330
175290,2.792,2.601,27.921
175305,2.881,2.645,28.807
175320,2.899,2.688,28.995
175335,2.944,2.734,29.439
175350,2.961,2.773,29.605
175365,2.967,2.818,29.666
175380,2.953,2.858,29.530
175395,2.891,2.877,28.915
175410,2.828,2.885,28.278
175425,2.761,2.888,27.611
175440,2.694,2.878,26.937
175455,2.688,2.859,26.882
175470,2.565,2.825,25.651
175485,2.678,2.799,26.781
175500,2.767,2.779,27.674
175515,2.799,2.762,27.986
175530,2.833,2.750,28.331
175545,2.825,2.744,28.254
175560,2.816,2.743,28.156
175575,2.841,2.751,28.411
175590,2.855,2.767,28.549
175605,2.825,2.780,28.247
175620,2.789,2.803,27.892
175635,2.762,2.811,27.621
175650,2.731,2.808,27.308
175665,2.720,2.800,27.201
175680,2.688,2.785,26.885
175695,2.674,2.770,26.740
175710,2.653,2.754,26.526
175725,2.631,2.733,26.314
175740,2.598,2.707,25.975
175755,2.572,2.682,25.719
175770,2.578,2.661,25.775
175785,2.570,2.641,25.704
175800,2.566,2.625,25.663
175815,2.581,2.611,25.814
175830,2.568,2.599,25.676
175845,2.546,2.586,25.461
175860,2.523,2.573,25.231
175875,2.520,2.562,25.196
175890,2.535,2.556,25.351
175905,2.534,2.552,25.343
175920,2.511,2.546,25.115
175935,2.493,2.538,24.930
175950,2.506,2.532,25.062
175965,2.498,2.523,24.984
175980,2.480,2.515,24.801
175995,2.467,2.507,24.665
176010,2.464,2.501,24.640
176025,2.466,2.496,24.664
176040,2.422,2.484,24.220
176055,2.407,2.472,24.072
176070,2.396,2.460,23.961
176085,2.411,2.452,24.105
176100,2.425,2.444,24.249
176115,2.412,2.435,24.120
176130,2.395,2.426,23.950
176145,2.355,2.415,23.546
176160,2.339,2.403,23.393
176175,2.353,2.391,23.533
176190,2.366,2.386,23.656
176205,2.342,2.379,23.423
176220,2.341,2.374,23.407
176235,2.362,2.369,23.621
176250,2.397,2.366,23.965
176265,2.415,2.366,24.150
176280,2.427,2.370,24.265
176295,2.416,2.376,24.160
176310,2.423,2.384,24.233
176325,2.409,2.390,24.091
176340,2.391,2.392,23.911
176355,2.405,2.399,24.055
176370,2.399,2.404,23.988
176385,2.418,2.410,24.185
176400,2.376,2.408,23.764
176415,2.416,2.408,24.160
176430,2.425,2.408,24.246
176445,2.406,2.407,24.060
176460,2.394,2.404,23.939
176475,2.401,2.403,24.006
176490,2.424,2.406,24.244
176505,2.415,2.407,24.155
176520,2.395,2.407,23.953
176535,2.390,2.404,23.900
176550,2.422,2.409,24.225
176565,2.431,2.410,24.315
176580,2.385,2.406,23.847
176595,2.436,2.409,24.356
176610,2.440,2.414,24.397
176625,2.403,2.414,24.029
176640,2.391,2.411,23.910
176655,2.391,2.408,23.912
176670,2.409,2.410,24.089
176685,2.411,2.412,24.113
176700,2.412,2.411,24.120
176715,2.449,2.413,24.490
176730,2.427,2.417,24.272
176745,2.427,2.416,24.272
176760,2.433,2.415,24.333
176775,2.431,2.418,24.315
176790,2.422,2.421,24.216
176805,2.422,2.424,24.222
176820,2.424,2.426,24.239
176835,2.403,2.425,24.028
176850,2.414,2.425,24.135
176865,2.390,2.419,23.897
176880,2.395,2.416,23.951
176895,2.421,2.415,24.209
176910,2.427,2.415,24.274
176925,2.434,2.415,24.335
176940,2.432,2.416,24.318
176955,2.528,2.427,25.280
176970,2.349,2.419,23.493
176985,2.182,2.397,21.823
177000,2.020,2.358,20.205
177015,1.912,2.310,19.121
177030,1.815,2.252,18.151
177045,1.744,2.184,17.436
177060,1.695,2.111,16.949
177075,1.661,2.034,16.605
177090,1.668,1.957,16.682
177105,1.651,1.870,16.510
177120,1.709,1.806,17.095
177135,1.705,1.758,17.047
177150,1.764,1.732,17.639
177165,1.789,1.720,17.895
177180,1.801,1.719,18.011
177195,1.840,1.728,18.401
177210,1.849,1.744,18.489
177225,1.921,1.770,19.212
177240,1.936,1.797,19.362
177255,1.969,1.828,19.689
177270,2.017,1.859,20.168
177285,2.041,1.893,20.414
177300,2.042,1.921,20.416
177315,2.041,1.946,20.410
177330,2.071,1.973,20.708
177345,2.111,2.000,21.114
177360,2.159,2.031,21.593
177375,2.215,2.060,22.149
177390,2.254,2.092,22.536
177405,2.253,2.120,22.525
177420,2.266,2.145,22.656
177435,2.270,2.168,22.703
177450,2.319,2.196,23.195
177465,2.352,2.227,23.525
177480,2.337,2.254,23.374
177495,2.338,2.276,23.382
177510,2.382,2.299,23.824
177525,2.373,2.315,23.731
177540,2.367,2.326,23.670
177555,2.360,2.337,23.600
177570,2.395,2.350,23.950
177585,2.421,2.365,24.213
177600,2.441,2.377,24.407
177615,2.404,2.382,24.041
177630,2.385,2.387,23.855
177645,2.406,2.393,24.058
177660,2.412,2.397,24.125
177675,2.438,2.403,24.375
177690,2.436,2.410,24.358
177705,2.418,2.416,24.181
177720,2.409,2.417,24.089
177735,2.410,2.416,24.096
177750,2.428,2.415,24.278
177765,2.438,2.418,24.380
177780,2.397,2.419,23.972
177795,2.442,2.423,24.421
177810,2.437,2.425,24.374
177825,2.418,2.423,24.181
177840,2.419,2.422,24.187
177855,2.403,2.420,24.026
177870,2.363,2.415,23.630
177885,2.542,2.429,25.421
177900,2.592,2.445,25.925
177915,2.765,2.478,27.647
177930,2.878,2.526,28.782
177945,2.984,2.580,29.835
177960,3.049,2.641,30.491
177975,3.095,2.709,30.954
177990,3.137,2.781,31.369
178005,3.174,2.858,31.744
178020,3.130,2.935,31.300
178035,3.108,2.991,31.084
178050,3.099,3.042,30.995
178065,3.056,3.071,30.564
178080,3.006,3.084,30.059
178095,2.977,3.083,29.769
178110,2.954,3.074,29.535
178125,2.849,3.049,28.495
178140,2.772,3.013,27.715
178155,2.708,2.966,27.080
178170,2.668,2.920,26.679
178185,2.618,2.871,26.177
178200,2.569,2.818,25.695
178215,2.569,2.769,25.689
178230,2.628,2.731,26.284
178245,2.658,2.699,26.577
178260,2.706,2.675,27.061
178275,2.722,2.662,27.224
178290,2.710,2.656,27.096
178305,2.695,2.654,26.946
178320,2.678,2.655,26.781
178335,2.671,2.661,26.706
178350,2.673,2.671,26.731
178365,2.630,2.677,26.296
178380,2.615,2.676,26.153
178395,2.576,2.668,25.761
178410,2.593,2.656,25.931
178425,2.578,2.642,25.782
178440,2.547,2.626,25.469
178455,2.547,2.611,25.469
178470,2.538,2.597,25.379
178485,2.506,2.580,25.056
178500,2.483,2.561,24.827
178515,2.460,2.544,24.600
178530,2.478,2.531,24.785
178545,2.501,2.523,25.015
178560,2.480,2.512,24.802
178575,2.458,2.500,24.584
178590,2.439,2.489,24.392
178605,2.405,2.475,24.053
178620,2.438,2.465,24.375
178635,2.455,2.460,24.551
178650,2.467,2.458,24.674
178665,2.467,2.459,24.670
178680,2.441,2.455,24.409
178695,2.388,2.444,23.883
178710,2.319,2.428,23.194
178725,2.201,2.402,22.005
178740,2.089,2.367,20.890
178755,1.995,2.326,19.950
178770,1.907,2.273,19.071
178785,1.824,2.210,18.236
178800,1.758,2.139,17.579
178815,1.717,2.064,17.170
178830,1.711,1.991,17.114
178845,1.680,1.920,16.796
178860,1.697,1.858,16.972
178875,1.673,1.805,16.735
178890,1.729,1.769,17.286
178905,1.745,1.744,17.446
178920,1.800,1.733,18.001
178935,1.840,1.735,18.398
178950,1.880,1.747,18.800
178965,1.905,1.766,19.051
178980,1.952,1.790,19.525
178995,1.976,1.820,19.756
179010,2.040,1.854,20.405
179025,2.090,1.896,20.899
179040,2.124,1.935,21.239
179055,2.168,1.978,21.684
179070,2.187,2.016,21.872
179085,2.242,2.057,22.423
179100,2.261,2.095,22.615
179115,2.286,2.133,22.857
179130,2.296,2.167,22.961
179145,2.305,2.200,23.049
179160,2.331,2.229,23.307
179175,2.326,2.253,23.264
179190,2.343,2.275,23.435
179205,2.379,2.296,23.795
179220,2.362,2.313,23.624
179235,2.390,2.328,23.900
179250,2.407,2.343,24.074
179265,2.387,2.353,23.870
179280,2.428,2.366,24.280
179295,2.489,2.384,24.886
179310,2.501,2.401,25.010
179325,2.549,2.424,25.487
179340,2.574,2.447,25.740
179355,2.578,2.467,25.780
179370,2.610,2.491,26.097
179385,2.616,2.514,26.159
179400,2.621,2.535,26.208
179415,2.626,2.559,26.263
179430,2.643,2.581,26.426
179445,2.679,2.600,26.789
179460,2.743,2.624,27.425
179475,2.781,2.647,27.810
179490,2.855,2.675,28.546
179505,2.912,2.708,29.124
179520,2.961,2.744,29.608
179535,2.999,2.782,29.989
179550,2.997,2.819,29.971
179565,2.993,2.856,29.925
179580,2.990,2.891,29.905
179595,2.984,2.921,29.835
179610,2.992,2.946,29.924
179625,2.994,2.968,29.943
179640,2.954,2.978,29.540
179655,2.952,2.982,29.519
179670,2.941,2.980,29.411
179685,2.931,2.973,29.305
179700,2.890,2.962,28.900
179715,2.849,2.948,28.491
179730,2.832,2.932,28.323
179745,2.787,2.912,27.870
179760,2.730,2.886,27.301
179775,2.708,2.857,27.085
179790,2.703,2.832,27.030
179805,2.662,2.803,26.616
179820,2.609,2.770,26.094
179835,2.634,2.740,26.340
179850,2.655,2.717,26.546
179865,2.662,2.698,26.624
179880,2.626,2.678,26.256
179895,2.621,2.661,26.206
179910,2.585,2.647,25.852
179925,2.598,2.635,25.981
179940,2.568,2.622,25.684
179955,2.569,2.613,25.690
179970,2.574,2.609,25.737
179985,2.560,2.602,25.597
180000,2.528,2.589,25.280
180015,2.528,2.576,25.276
180030,2.506,2.564,25.060
180045,2.477,2.549,24.771
180060,2.444,2.535,24.444
180075,2.445,2.520,24.449
180090,2.457,2.509,24.570
180105,2.422,2.494,24.222
180120,2.424,2.479,24.236
180135,2.426,2.466,24.261
180150,2.408,2.454,24.076
180165,2.401,2.441,24.006
180180,2.404,2.431,24.035
180195,2.402,2.423,24.023
180210,2.390,2.418,23.899
180225,2.406,2.414,24.058
180240,2.398,2.408,23.979
180255,2.397,2.405,23.965
180270,2.366,2.400,23.665
180285,2.391,2.396,23.915
180300,2.375,2.393,23.745
180315,2.375,2.390,23.749
180330,2.400,2.390,23.997
180345,2.407,2.390,24.071
180360,2.430,2.394,24.298
180375,2.405,2.394,24.049
180390,2.404,2.395,24.040
180405,2.456,2.401,24.560
180420,2.305,2.395,23.048
180435,2.196,2.375,21.964
180450,2.054,2.343,20.541
180465,1.899,2.296,18.987
180480,1.790,2.235,17.901
180495,1.678,2.162,16.778
180510,1.649,2.084,16.486
180525,1.620,2.005,16.204
180540,1.646,1.929,16.465
180555,1.617,1.845,16.174
180570,1.593,1.774,15.931
180585,1.652,1.720,16.523
180600,1.644,1.679,16.439
180615,1.687,1.658,16.870
180630,1.738,1.653,17.385
180645,1.802,1.665,18.020
180660,1.837,1.684,18.375
180675,1.920,1.714,19.198
180690,1.959,1.745,19.585
180705,2.008,1.784,20.076
180720,2.053,1.830,20.528
180735,2.106,1.875,21.065
180750,2.135,1.925,21.350
180765,2.170,1.973,21.701
180780,2.217,2.021,22.169
180795,2.262,2.067,22.616
180810,2.280,2.111,22.798
180825,2.231,2.142,22.308
180840,2.273,2.173,22.726
180855,2.291,2.202,22.914
180870,2.306,2.227,23.065
180885,2.299,2.246,22.987
180900,2.309,2.264,23.091
180915,2.343,2.281,23.428
180930,2.372,2.297,23.724
180945,2.363,2.307,23.628
180960,2.385,2.317,23.854
180975,2.392,2.333,23.921
180990,2.419,2.348,24.193
181005,2.418,2.361,24.180
181020,2.434,2.373,24.335
181035,2.426,2.386,24.256
181050,2.410,2.396,24.096
181065,2.411,2.403,24.110
181080,2.397,2.405,23.970
181095,2.426,2.412,24.257
181110,2.424,2.416,24.239
181125,2.431,2.419,24.305
181140,2.416,2.419,24.161
181155,2.426,2.420,24.259
181170,2.435,2.420,24.355
181185,2.452,2.423,24.516
181200,2.445,2.426,24.454
181215,2.439,2.429,24.389
181230,2.447,2.434,24.467
181245,2.414,2.433,24.142
181260,2.385,2.429,23.853
181275,2.398,2.426,23.976
181290,2.414,2.426,24.142
181305,2.399,2.423,23.990
181320,2.392,2.419,23.920
181335,2.377,2.411,23.766
181350,2.345,2.401,23.452
181365,2.355,2.393,23.547
181380,2.335,2.381,23.354
181395,2.354,2.375,23.539
181410,2.385,2.375,23.850
181425,2.376,2.373,23.764
181440,2.370,2.369,23.699
181455,2.362,2.365,23.617
181470,2.346,2.360,23.461
181485,2.359,2.359,23.586
181500,2.367,2.361,23.666
181515,2.371,2.362,23.708
181530,2.403,2.369,24.030
181545,2.371,2.371,23.714
181560,2.375,2.370,23.751
181575,2.404,2.373,24.036
181590,2.398,2.375,23.975
181605,2.383,2.378,23.833
181620,2.394,2.382,23.939
181635,2.424,2.389,24.242
181650,2.428,2.395,24.276
181665,2.413,2.399,24.132
181680,2.431,2.402,24.311
181695,2.435,2.408,24.346
181710,2.440,2.415,24.401
181725,2.419,2.416,24.190
181740,2.433,2.420,24.333
181755,2.422,2.424,24.218
181770,2.422,2.427,24.224
181785,2.412,2.426,24.121
181800,2.413,2.424,24.132
181815,2.406,2.423,24.064
181830,2.427,2.423,24.269
181845,2.401,2.420,24.012
181860,2.391,2.415,23.906
181875,2.392,2.412,23.920
181890,2.409,2.410,24.093
181905,2.457,2.413,24.573
181920,2.419,2.413,24.186
181935,2.272,2.399,22.715
181950,2.444,2.402,24.437
181965,2.612,2.422,26.125
181980,2.798,2.459,27.981
181995,2.948,2.514,29.481
182010,3.034,2.579,30.340
182025,3.109,2.650,31.088
182040,3.106,2.720,31.061
182055,3.135,2.788,31.354
182070,3.179,2.864,31.791
182085,3.190,2.956,31.904
182100,3.195,3.031,31.949
182115,3.224,3.092,32.238
182130,3.175,3.130,31.751
182145,3.107,3.145,31.069
182160,3.062,3.148,30.622
182175,3.044,3.142,30.437
182190,2.987,3.130,29.869
182205,2.926,3.109,29.261
182220,2.890,3.080,28.903
182235,2.851,3.046,28.512
182250,2.824,3.009,28.243
182265,2.811,2.968,28.108
182280,2.739,2.924,27.392
182295,2.706,2.884,27.061
182310,2.664,2.844,26.635
182325,2.638,2.804,26.385
182340,2.624,2.767,26.243
182355,2.603,2.735,26.029
182370,2.578,2.704,25.780
182385,2.559,2.675,25.587
182400,2.502,2.642,25.021
182415,2.521,2.613,25.211
182430,2.504,2.590,25.038
182445,2.510,2.570,25.099
182460,2.508,2.555,25.077
182475,2.497,2.541,24.966
182490,2.480,2.526,24.802
182505,2.454,2.511,24.535
182520,2.445,2.498,24.455
182535,2.442,2.486,24.424
182550,2.476,2.484,24.760
182565,2.471,2.479,24.709
182580,2.432,2.471,24.323
182595,2.440,2.464,24.395
182610,2.415,2.455,24.155
182625,2.392,2.445,23.920
182640,2.393,2.436,23.931
182655,2.429,2.434,24.290
182670,2.445,2.434,24.454
182685,2.438,2.433,24.384
182700,2.428,2.428,24.279
182715,2.410,2.422,24.104
182730,2.411,2.420,24.105
182745,2.392,2.415,23.919
182760,2.400,2.414,23.996
182775,2.423,2.417,24.226
182790,2.405,2.418,24.048
182805,2.415,2.417,24.151
182820,2.409,2.413,24.094
182835,2.442,2.413,24.419
182850,2.471,2.418,24.715
182865,2.435,2.420,24.347
182880,2.403,2.419,24.031
182895,2.380,2.418,23.798
182910,2.401,2.418,24.005
182925,2.409,2.417,24.088
182940,2.425,2.419,24.251
182955,2.418,2.419,24.175
182970,2.462,2.424,24.619
182985,2.465,2.427,24.654
183000,2.436,2.423,24.358
183015,2.401,2.420,24.011
183030,2.402,2.420,24.019
183045,2.400,2.422,24.000
183060,2.414,2.423,24.137
183075,2.412,2.423,24.124
183090,2.434,2.424,24.345
183105,2.403,2.423,24.028
183120,2.435,2.420,24.347
183135,2.445,2.418,24.449
183150,2.419,2.416,24.186
183165,2.519,2.428,25.194
183180,2.325,2.421,23.249
183195,2.274,2.408,22.745
183210,2.316,2.398,23.160
183225,2.347,2.392,23.472
183240,2.382,2.387,23.823
183255,2.416,2.388,24.160
183270,2.232,2.368,22.316
183285,2.058,2.329,20.581
183300,1.962,2.283,19.620
183315,1.870,2.218,18.701
183330,1.761,2.162,17.611
183345,1.671,2.102,16.711
183360,1.669,2.037,16.693
183375,1.634,1.966,16.339
183390,1.656,1.893,16.556
183405,1.651,1.816,16.515
183420,1.667,1.760,16.669
183435,1.694,1.724,16.942
183450,1.719,1.699,17.189
183465,1.777,1.690,17.773
183480,1.859,1.700,18.586
183495,1.949,1.727,19.485
183510,2.039,1.764,20.394
183525,1.994,1.801,19.943
183540,2.010,1.836,20.104
183555,2.024,1.873,20.236
183570,2.061,1.913,20.614
183585,2.078,1.951,20.782
183600,2.087,1.988,20.868
183615,2.120,2.022,21.204
183630,2.155,2.052,21.549
183645,2.187,2.076,21.865
183660,2.208,2.092,22.079
183675,2.219,2.115,22.194
183690,2.264,2.140,22.642
183705,2.270,2.165,22.704
183720,2.308,2.190,23.077
183735,2.305,2.212,23.050
183750,2.337,2.237,23.374
183765,2.324,2.258,23.244
183780,2.345,2.277,23.450
183795,2.354,2.294,23.544
183810,2.367,2.309,23.667
183825,2.365,2.324,23.655
183840,2.362,2.334,23.617
183855,2.375,2.344,23.750
183870,2.366,2.350,23.665
183885,2.363,2.356,23.626
183900,2.381,2.360,23.811
183915,2.378,2.366,23.780
183930,2.405,2.372,24.054
183945,2.418,2.378,24.185
183960,2.385,2.380,23.845
183975,2.390,2.382,23.901
183990,2.387,2.385,23.871
184005,2.397,2.387,23.965
184020,2.378,2.388,23.779
184035,2.358,2.388,23.575
184050,2.404,2.390,24.041
184065,2.405,2.393,24.045
184080,2.396,2.392,23.960
184095,2.414,2.391,24.145
184110,2.416,2.394,24.158
184125,2.424,2.398,24.237
184140,2.407,2.400,24.071
184155,2.405,2.401,24.050
184170,2.411,2.404,24.110
184185,2.419,2.410,24.191
184200,2.430,2.413,24.300
184215,2.409,2.413,24.086
184230,2.413,2.415,24.128
184245,2.386,2.412,23.861
184260,2.384,2.409,23.844
184275,2.391,2.406,23.910
184290,2.398,2.405,23.975
184305,2.395,2.404,23.953
184320,2.399,2.402,23.989
184335,2.390,2.399,23.897
184350,2.391,2.396,23.912
184365,2.397,2.394,23.966
184380,2.401,2.393,24.007
184395,2.370,2.392,23.699
184410,2.500,2.403,25.003
184425,2.591,2.423,25.906
184440,2.718,2.455,27.181
184455,2.852,2.501,28.524
184470,2.937,2.555,29.369
184485,3.027,2.618,30.269
184500,3.110,2.690,31.096
184515,3.138,2.764,31.385
184530,3.165,2.841,31.651
184545,3.174,2.921,31.737
184560,3.158,2.987,31.577
184575,3.170,3.045,31.701
184590,3.189,3.092,31.890
184605,3.155,3.122,31.553
184620,3.102,3.139,31.015
184635,3.076,3.144,30.765
184650,3.020,3.135,30.198
184665,2.965,3.117,29.653
184680,2.908,3.092,29.081
184695,2.878,3.062,28.779
184710,2.859,3.032,28.590
184725,2.804,2.996,28.042
184740,2.743,2.951,27.430
184755,2.711,2.907,27.109
184770,2.684,2.865,26.844
184785,2.661,2.823,26.614
184800,2.628,2.784,26.282
184815,2.608,2.748,26.076
184830,2.602,2.718,26.017
184845,2.562,2.686,25.619
184860,2.542,2.655,25.420
184875,2.522,2.626,25.217
184890,2.530,2.605,25.295
184905,2.482,2.582,24.823
184920,2.493,2.563,24.935
184935,2.480,2.545,24.799
184950,2.444,2.526,24.436
184965,2.434,2.509,24.335
184980,2.449,2.494,24.491
184995,2.488,2.486,24.881
185010,2.469,2.479,24.691
185025,2.449,2.472,24.489
185040,2.454,2.464,24.540
185055,2.447,2.461,24.470
185070,2.446,2.456,24.456
185085,2.419,2.450,24.187
185100,2.420,2.447,24.199
185115,2.411,2.445,24.106
185130,2.419,2.442,24.189
185145,2.424,2.436,24.245
185160,2.435,2.432,24.351
185175,2.420,2.429,24.204
185190,2.431,2.427,24.310
185205,2.392,2.422,23.918
185220,2.399,2.417,23.994
185235,2.417,2.417,24.166
185250,2.441,2.419,24.407
185265,2.444,2.422,24.440
185280,2.419,2.422,24.194
185295,2.425,2.422,24.253
185310,2.427,2.422,24.274
185325,2.415,2.421,24.146
185340,2.402,2.418,24.019
185355,2.416,2.421,24.159
185370,2.422,2.423,24.222
185385,2.415,2.423,24.153
185400,2.413,2.420,24.134
185415,2.434,2.419,24.335
185430,2.426,2.420,24.264
185445,2.407,2.418,24.072
185460,2.402,2.415,24.023
185475,2.407,2.415,24.070
185490,2.396,2.414,23.962
185505,2.362,2.409,23.620
185520,2.403,2.407,24.030
185535,2.422,2.407,24.220
185550,2.428,2.409,24.276
185565,2.397,2.405,23.969
185580,2.411,2.404,24.115
185595,2.404,2.403,24.036
185610,2.407,2.404,24.070
185625,2.417,2.405,24.165
185640,2.463,2.411,24.627
185655,2.304,2.406,23.044
185670,2.113,2.377,21.131
185685,1.947,2.329,19.474
185700,1.784,2.265,17.840
185715,1.706,2.196,17.056
185730,1.633,2.118,16.331
185745,1.589,2.036,15.891
185760,1.603,1.956,16.034
185775,1.583,1.873,15.833
185790,1.574,1.784,15.738
185805,1.589,1.712,15.887
185820,1.646,1.665,16.464
185835,1.693,1.640,16.926
185850,1.740,1.636,17.401
185865,1.756,1.641,17.562
185880,1.814,1.659,18.145
185895,1.872,1.687,18.718
185910,1.948,1.722,19.477
185925,1.975,1.761,19.754
185940,2.048,1.808,20.479
185955,2.112,1.860,21.121
185970,2.140,1.910,21.403
185985,2.179,1.959,21.792
186000,2.191,2.004,21.905
186015,2.216,2.050,22.157
186030,2.220,2.090,22.205
186045,2.242,2.127,22.420
186060,2.260,2.158,22.603
186075,2.312,2.192,23.118
186090,2.319,2.219,23.190
186105,2.340,2.242,23.399
186120,2.364,2.264,23.640
186135,2.372,2.284,23.716
186150,2.399,2.304,23.991
186165,2.398,2.323,23.975
186180,2.395,2.340,23.955
186195,2.413,2.357,24.131
186210,2.394,2.371,23.939
186225,2.398,2.379,23.983
186240,2.363,2.384,23.629
186255,2.384,2.388,23.844
186270,2.447,2.396,24.470
186285,2.455,2.405,24.551
186300,2.413,2.406,24.132
186315,2.407,2.407,24.066
186330,2.418,2.409,24.184
186345,2.384,2.406,23.844
186360,2.411,2.408,24.109
186375,2.423,2.411,24.230
186390,2.413,2.416,24.132
186405,2.366,2.414,23.656
186420,2.366,2.406,23.656
186435,2.380,2.398,23.802
186450,2.422,2.399,24.221
186465,2.422,2.401,24.220
186480,2.418,2.400,24.177
186495,2.423,2.404,24.229
186510,2.403,2.404,24.028
186525,2.386,2.400,23.856
186540,2.306,2.389,23.057
186555,2.514,2.404,25.144
186570,2.480,2.415,24.802
186585,2.608,2.438,26.079
186600,2.613,2.457,26.131
186615,2.751,2.490,27.513
186630,2.830,2.531,28.299
186645,2.833,2.572,28.329
186660,2.888,2.621,28.880
186675,2.836,2.666,28.356
186690,2.784,2.714,27.838
186705,2.678,2.730,26.785
186720,2.776,2.760,27.762
186735,2.865,2.785,28.653
186750,2.928,2.817,29.281
186765,2.937,2.836,29.368
186780,2.894,2.842,28.940
186795,2.816,2.840,28.159
186810,2.710,2.822,27.100
186825,2.808,2.820,28.083
186840,2.880,2.829,28.800
186855,2.941,2.856,29.407
186870,3.009,2.879,30.092
186885,3.036,2.896,30.357
186900,3.017,2.905,30.166
186915,3.001,2.911,30.010
186930,2.951,2.917,29.510
186945,2.914,2.927,29.135
186960,2.871,2.943,28.714
186975,2.865,2.948,28.654
186990,2.829,2.943,28.291
187005,2.821,2.931,28.210
187020,2.769,2.907,27.687
187035,2.724,2.876,27.244
187050,2.664,2.841,26.640
187065,2.636,2.804,26.359
187080,2.619,2.771,26.195
187095,2.615,2.741,26.149
187110,2.585,2.713,25.852
187125,2.574,2.684,25.741
187140,2.558,2.657,25.576
187155,2.496,2.624,24.959
187170,2.457,2.593,24.569
187185,2.457,2.566,24.571
187200,2.461,2.546,24.613
187215,2.467,2.529,24.675
187230,2.483,2.515,24.834
187245,2.460,2.500,24.599
187260,2.381,2.479,23.810
187275,2.357,2.458,23.568
187290,2.401,2.442,24.006
187305,2.416,2.434,24.159
187320,2.438,2.432,24.381
187335,2.455,2.432,24.549
187350,2.472,2.433,24.719
187365,2.424,2.429,24.245
187380,2.391,2.419,23.905
187395,2.401,2.414,24.012
187410,2.419,2.417,24.191
187425,2.429,2.425,24.291
187440,2.412,2.426,24.116
187455,2.390,2.423,23.897
187470,2.385,2.418,23.846
187485,2.378,2.410,23.784
187500,2.388,2.402,23.880
187515,2.431,2.402,24.310
187530,2.431,2.406,24.310
187545,2.429,2.409,24.294
187560,2.407,2.408,24.065
187575,2.404,2.405,24.041
187590,2.429,2.407,24.290
187605,2.413,2.410,24.132
187620,2.436,2.415,24.361
187635,2.427,2.420,24.270
187650,2.426,2.423,24.263
187665,2.376,2.418,23.761
187680,2.375,2.412,23.750
187695,2.391,2.408,23.910
187710,2.397,2.408,23.971
187725,2.263,2.393,22.629
187740,2.166,2.367,21.660
187755,2.018,2.328,20.184
187770,1.888,2.273,18.879
187785,1.776,2.208,17.760
187800,1.687,2.134,16.872
187815,1.674,2.064,16.743
187830,1.628,1.989,16.281
187845,1.613,1.911,16.135
187860,1.626,1.834,16.260
187875,1.648,1.773,16.478
187890,1.675,1.723,16.754
187905,1.656,1.687,16.561
187920,1.714,1.670,17.135
187935,1.775,1.670,17.754
187950,1.836,1.685,18.362
187965,1.869,1.704,18.691
187980,1.903,1.732,19.026
187995,1.967,1.767,19.670
188010,2.005,1.805,20.050
188025,2.003,1.840,20.029
188040,2.072,1.880,20.715
188055,2.121,1.926,21.212
188070,2.165,1.972,21.653
188085,2.161,2.010,21.614
188100,2.190,2.046,21.900
188115,2.231,2.082,22.315
188130,2.231,2.115,22.312
188145,2.267,2.145,22.674
188160,2.309,2.175,23.094
188175,2.333,2.208,23.330
188190,2.345,2.236,23.452
188205,2.352,2.259,23.525
188220,2.362,2.278,23.624
188235,2.375,2.300,23.747
188250,2.392,2.320,23.916
188265,2.337,2.330,23.374
188280,2.348,2.342,23.480
188295,2.386,2.354,23.865
188310,2.367,2.360,23.667
188325,2.366,2.363,23.660
188340,2.399,2.368,23.991
188355,2.429,2.376,24.291
188370,2.423,2.382,24.226
188385,2.444,2.389,24.445
188400,2.447,2.395,24.470
188415,2.405,2.401,24.051
188430,2.396,2.406,23.959
188445,2.384,2.406,23.835
188460,2.403,2.410,24.034
188475,2.445,2.418,24.449
188490,2.434,2.421,24.336
188505,2.417,2.420,24.166
188520,2.399,2.417,23.990
188535,2.402,2.413,24.019
188550,2.419,2.410,24.193
188565,2.391,2.409,23.911
188580,2.415,2.411,24.146
188595,2.437,2.416,24.366
188610,2.447,2.420,24.466
188625,2.425,2.418,24.254
188640,2.431,2.418,24.305
188655,2.434,2.420,24.343
188670,2.442,2.424,24.419
188685,2.432,2.427,24.318
188700,2.412,2.426,24.123
188715,2.439,2.431,24.392
188730,2.435,2.433,24.350
188745,2.418,2.431,24.176
188760,2.420,2.429,24.199
188775,2.423,2.429,24.233
188790,2.439,2.429,24.390
188805,2.428,2.429,24.279
188820,2.420,2.427,24.202
188835,2.409,2.424,24.086
188850,2.393,2.422,23.926
188865,2.380,2.416,23.798
188880,2.402,2.413,24.021
188895,2.408,2.412,24.076
188910,2.421,2.412,24.213
188925,2.421,2.412,24.215
188940,2.320,2.400,23.196
188955,2.508,2.408,25.084
188970,2.659,2.432,26.594
188985,2.824,2.474,28.244
189000,2.986,2.533,29.856
189015,3.063,2.601,30.632
189030,3.137,2.675,31.366
189045,3.175,2.752,31.751
189060,3.226,2.832,32.263
189075,3.251,2.915,32.509
189090,3.248,3.008,32.481
189105,3.205,3.077,32.050
189120,3.179,3.129,31.788
189135,3.164,3.163,31.642
189150,3.127,3.178,31.269
189165,3.079,3.179,30.789
189180,2.973,3.163,29.731
189195,2.943,3.140,29.430
189210,2.947,3.112,29.475
189225,2.903,3.077,29.034
189240,2.850,3.037,28.501
189255,2.800,2.997,28.005
189270,2.761,2.955,27.610
189285,2.716,2.910,27.157
189300,2.716,2.869,27.162
189315,2.677,2.829,26.772
189330,2.614,2.793,26.136
189345,2.581,2.757,25.814
189360,2.565,2.718,25.649
189375,2.553,2.683,25.529
189390,2.473,2.646,24.732
189405,2.491,2.615,24.915
189420,2.500,2.589,25.005
189435,2.525,2.570,25.251
189450,2.508,2.549,25.076
189465,2.487,2.530,24.869
189480,2.470,2.515,24.701
189495,2.468,2.504,24.678
189510,2.420,2.490,24.202
189525,2.414,2.476,24.145
189540,2.428,2.471,24.285
189555,2.437,2.466,24.365
189570,2.442,2.460,24.423
189585,2.444,2.452,24.436
189600,2.437,2.445,24.369
189615,2.432,2.439,24.318
