Timestamp,Voltage,filtered_voltage,amplified_voltage
223095,2.419,2.417,24.189
223110,2.410,2.422,24.099
223125,2.407,2.422,24.066
223140,2.396,2.421,23.964
223155,2.397,2.420,23.967
223170,2.414,2.420,24.135
223185,2.411,2.419,24.114
223200,2.423,2.418,24.234
223215,2.399,2.412,23.994
223230,2.449,2.413,24.490
223245,2.432,2.414,24.324
223260,2.395,2.412,23.949
223275,2.429,2.415,24.288
223290,2.449,2.420,24.487
223305,2.421,2.422,24.205
223320,2.443,2.425,24.426
223335,2.454,2.429,24.535
223350,2.453,2.432,24.525
223365,2.425,2.435,24.251
223380,2.423,2.432,24.226
223395,2.395,2.428,23.954
223410,2.412,2.430,24.119
223425,2.393,2.427,23.934
223440,2.431,2.425,24.315
223455,2.472,2.430,24.720
223470,2.443,2.430,24.431
223485,2.443,2.429,24.425
223500,2.415,2.425,24.154
223515,2.391,2.422,23.915
223530,2.396,2.419,23.962
223545,2.407,2.420,24.070
223560,2.386,2.418,23.861
223575,2.397,2.418,23.967
223590,2.418,2.417,24.179
223605,2.428,2.412,24.281
223620,2.389,2.407,23.890
223635,2.441,2.407,24.411
223650,2.700,2.435,26.999
223665,2.877,2.484,28.766
223680,3.031,2.547,30.311
223695,3.115,2.618,31.145
223710,3.199,2.699,31.993
223725,3.267,2.787,32.675
223740,3.264,2.871,32.639
223755,3.282,2.956,32.818
223770,3.277,3.045,32.771
223785,3.246,3.126,32.460
223800,3.199,3.176,31.993
223815,3.169,3.205,31.689
223830,3.125,3.214,31.247
223845,3.044,3.207,30.439
223860,2.954,3.183,29.535
223875,2.899,3.146,28.991
223890,2.871,3.107,28.711
223905,2.842,3.063,28.419
223920,2.776,3.012,27.761
223935,2.725,2.960,27.251
223950,2.704,2.911,27.040
223965,2.631,2.857,26.311
223980,2.595,2.804,25.955
223995,2.549,2.755,25.492
224010,2.554,2.715,25.539
224025,2.520,2.677,25.205
224040,2.505,2.640,25.054
224055,2.511,2.607,25.111
224070,2.460,2.576,24.601
224085,2.470,2.550,24.696
224100,2.440,2.524,24.397
224115,2.462,2.507,24.616
224130,2.446,2.492,24.461
224145,2.439,2.481,24.391
224160,2.416,2.467,24.163
224175,2.391,2.454,23.915
224190,2.425,2.446,24.248
224205,2.433,2.438,24.333
224220,2.449,2.437,24.486
224235,2.447,2.435,24.469
224250,2.457,2.437,24.570
224265,2.402,2.431,24.018
224280,2.398,2.426,23.979
224295,2.426,2.424,24.261
224310,2.426,2.425,24.263
224325,2.441,2.430,24.410
224340,2.409,2.429,24.094
224355,2.448,2.430,24.480
224370,2.418,2.427,24.176
224385,2.408,2.423,24.081
224400,2.397,2.417,23.965
224415,2.401,2.417,24.012
224430,2.428,2.420,24.283
224445,2.463,2.424,24.629
224460,2.407,2.422,24.069
224475,2.406,2.418,24.059
224490,2.419,2.419,24.186
224505,2.422,2.417,24.219
224520,2.438,2.419,24.381
224535,2.440,2.422,24.396
224550,2.451,2.427,24.514
224565,2.457,2.433,24.569
224580,2.425,2.433,24.249
224595,2.427,2.429,24.269
224610,2.438,2.432,24.378
224625,2.460,2.438,24.604
224640,2.239,2.420,22.391
224655,2.067,2.384,20.673
224670,1.956,2.336,19.562
224685,1.863,2.278,18.629
224700,1.772,2.210,17.721
224715,1.786,2.143,17.859
224730,1.778,2.079,17.784
224745,1.793,2.015,17.930
224760,1.801,1.952,18.005
224775,1.860,1.891,18.595
224790,1.951,1.863,19.509
224805,1.986,1.855,19.861
224820,2.029,1.862,20.290
224835,2.063,1.882,20.625
224850,2.145,1.919,21.451
224865,2.195,1.960,21.951
224880,2.232,2.005,22.321
224895,2.268,2.053,22.681
224910,2.272,2.100,22.720
224925,2.406,2.155,24.060
224940,2.371,2.197,23.705
224955,2.381,2.236,23.812
224970,2.423,2.276,24.231
224985,2.424,2.312,24.240
225000,2.401,2.337,24.007
225015,2.372,2.355,23.720
225030,2.349,2.367,23.494
225045,2.353,2.375,23.535
225060,2.368,2.385,23.677
225075,2.420,2.386,24.202
225090,2.438,2.393,24.375
225105,2.425,2.397,24.248
225120,2.438,2.399,24.376
225135,2.388,2.395,23.884
225150,2.401,2.395,24.014
225165,2.364,2.394,23.638
225180,2.389,2.398,23.895
225195,2.392,2.402,23.919
225210,2.431,2.409,24.310
225225,2.417,2.408,24.170
225240,2.415,2.406,24.151
225255,2.418,2.405,24.184
225270,2.397,2.401,23.974
225285,2.414,2.404,24.137
225300,2.406,2.404,24.062
225315,2.428,2.411,24.278
225330,2.412,2.413,24.118
225345,2.417,2.416,24.174
225360,2.382,2.411,23.825
225375,2.406,2.410,24.056
225390,2.379,2.406,23.789
225405,2.388,2.403,23.884
225420,2.403,2.404,24.029
225435,2.414,2.404,24.141
225450,2.432,2.406,24.318
225465,2.426,2.406,24.261
225480,2.408,2.406,24.076
225495,2.391,2.403,23.915
225510,2.416,2.406,24.164
225525,2.425,2.408,24.253
225540,2.401,2.411,24.011
225555,2.400,2.412,24.004
225570,2.400,2.411,24.000
225585,2.394,2.409,23.937
225600,2.385,2.405,23.845
225615,2.404,2.402,24.041
225630,2.421,2.404,24.209
225645,2.428,2.407,24.284
225660,2.396,2.405,23.960
225675,2.402,2.403,24.019
225690,2.411,2.404,24.106
225705,2.337,2.398,23.368
225720,2.432,2.401,24.319
225735,2.440,2.405,24.395
225750,2.534,2.420,25.343
225765,2.478,2.428,24.781
225780,2.427,2.428,24.270
225795,2.448,2.430,24.480
225810,2.451,2.436,24.506
225825,2.446,2.440,24.460
225840,2.431,2.442,24.309
225855,2.434,2.452,24.343
225870,2.445,2.453,24.451
225885,2.440,2.453,24.397
225900,2.426,2.443,24.257
225915,2.447,2.439,24.470
225930,2.408,2.438,24.083
225945,2.387,2.431,23.871
225960,2.389,2.425,23.892
225975,2.379,2.419,23.794
225990,2.394,2.415,23.939
226005,2.385,2.410,23.851
226020,2.389,2.404,23.891
226035,2.396,2.400,23.958
226050,2.403,2.398,24.032
226065,2.385,2.392,23.847
226080,2.388,2.390,23.877
226095,2.395,2.390,23.951
226110,2.387,2.390,23.866
226125,2.396,2.392,23.959
226140,2.388,2.391,23.879
226155,2.447,2.397,24.474
226170,2.437,2.402,24.374
226185,2.443,2.407,24.426
226200,2.376,2.404,23.764
226215,2.379,2.404,23.786
226230,2.462,2.411,24.616
226245,2.454,2.417,24.537
226260,2.450,2.423,24.501
226275,2.437,2.427,24.374
226290,2.429,2.431,24.294
226305,2.383,2.425,23.829
226320,2.383,2.420,23.830
226335,2.399,2.415,23.991
226350,2.415,2.419,24.150
226365,2.419,2.423,24.190
226380,2.426,2.420,24.260
226395,2.407,2.415,24.066
226410,2.407,2.411,24.070
226425,2.399,2.407,23.995
226440,2.408,2.405,24.076
226455,2.384,2.405,23.841
226470,2.413,2.408,24.130
226485,2.419,2.410,24.186
226500,2.410,2.409,24.101
226515,2.436,2.411,24.358
226530,2.425,2.411,24.254
226545,2.431,2.413,24.306
226560,2.406,2.413,24.056
226575,2.390,2.412,23.903
226590,2.421,2.413,24.213
226605,2.452,2.420,24.522
226620,2.327,2.412,23.271
226635,2.367,2.407,23.673
226650,2.374,2.403,23.741
226665,2.372,2.397,23.719
226680,2.369,2.391,23.691
226695,2.393,2.387,23.929
226710,2.407,2.387,24.072
226725,2.414,2.390,24.141
226740,2.394,2.387,23.942
226755,2.391,2.381,23.906
226770,2.418,2.390,24.175
226785,2.397,2.393,23.969
226800,2.384,2.394,23.841
226815,2.428,2.399,24.280
226830,2.447,2.407,24.471
226845,2.453,2.413,24.525
226860,2.436,2.416,24.364
226875,2.437,2.418,24.371
226890,2.432,2.422,24.318
226905,2.416,2.425,24.156
226920,2.438,2.427,24.375
226935,2.445,2.432,24.454
226950,2.417,2.435,24.166
226965,2.398,2.432,23.983
226980,2.415,2.429,24.153
226995,2.398,2.423,23.977
227010,2.427,2.422,24.267
227025,2.440,2.422,24.397
227040,2.436,2.423,24.358
227055,2.450,2.426,24.501
227070,2.418,2.424,24.180
227085,2.447,2.424,24.466
227100,2.475,2.430,24.754
227115,2.425,2.433,24.254
227130,2.439,2.435,24.386
227145,2.397,2.435,23.971
227160,2.380,2.431,23.802
227175,2.382,2.425,23.825
227190,2.357,2.417,23.566
227205,2.351,2.407,23.505
227220,2.357,2.401,23.569
227235,2.354,2.392,23.536
227250,2.366,2.381,23.661
227265,2.386,2.377,23.862
227280,2.316,2.365,23.161
227295,2.323,2.357,23.234
227310,2.350,2.354,23.499
227325,2.358,2.352,23.579
227340,2.364,2.352,23.642
227355,2.345,2.352,23.446
227370,2.362,2.352,23.624
227385,2.389,2.356,23.889
227400,2.380,2.357,23.800
227415,2.373,2.356,23.730
227430,2.372,2.362,23.715
227445,2.399,2.369,23.995
227460,2.359,2.370,23.593
227475,2.382,2.373,23.823
227490,2.388,2.375,23.881
227505,2.360,2.376,23.599
227520,2.338,2.374,23.379
227535,2.353,2.370,23.534
227550,2.353,2.368,23.528
227565,2.348,2.365,23.479
227580,2.388,2.367,23.875
227595,2.418,2.369,24.175
227610,2.428,2.375,24.276
227625,2.407,2.378,24.065
227640,2.382,2.377,23.820
227655,2.391,2.380,23.905
227670,2.383,2.385,23.831
227685,2.401,2.390,24.005
227700,2.393,2.394,23.932
227715,2.437,2.403,24.374
227730,2.465,2.410,24.646
227745,2.443,2.413,24.425
227760,2.427,2.413,24.270
227775,2.378,2.410,23.785
227790,2.384,2.410,23.844
227805,2.390,2.410,23.901
227820,2.378,2.410,23.784
227835,2.394,2.409,23.942
227850,2.396,2.409,23.956
227865,2.397,2.405,23.969
227880,2.396,2.398,23.956
227895,2.394,2.393,23.935
227910,2.405,2.391,24.055
227925,2.414,2.395,24.142
227940,2.391,2.396,23.914
227955,2.384,2.395,23.840
227970,2.381,2.395,23.814
227985,2.411,2.397,24.110
228000,2.407,2.398,24.071
228015,2.385,2.397,23.851
228030,2.388,2.396,23.879
228045,2.382,2.395,23.821
228060,2.375,2.392,23.746
228075,2.389,2.389,23.890
228090,2.415,2.392,24.154
228105,2.423,2.396,24.233
228120,2.446,2.402,24.459
228135,2.434,2.404,24.340
228150,2.424,2.406,24.242
228165,2.403,2.408,24.030
228180,2.388,2.408,23.885
228195,2.411,2.411,24.111
228210,2.432,2.417,24.316
228225,2.404,2.418,24.044
228240,2.422,2.419,24.222
228255,2.429,2.419,24.294
228270,2.397,2.415,23.966
228285,2.395,2.411,23.953
228300,2.356,2.404,23.561
228315,2.376,2.401,23.765
228330,2.415,2.404,24.154
228345,2.389,2.402,23.890
228360,2.435,2.402,24.355
228375,2.431,2.405,24.314
228390,2.430,2.406,24.301
228405,2.419,2.404,24.190
228420,2.404,2.405,24.036
228435,2.411,2.407,24.113
228450,2.397,2.411,23.971
228465,2.394,2.413,23.941
228480,2.365,2.408,23.650
228495,2.372,2.406,23.719
228510,2.383,2.401,23.833
228525,2.370,2.395,23.698
228540,2.391,2.391,23.909
228555,2.392,2.388,23.916
228570,2.404,2.388,24.035
228585,2.422,2.389,24.220
228600,2.391,2.388,23.909
228615,2.388,2.388,23.876
228630,2.371,2.388,23.709
228645,2.370,2.388,23.704
228660,2.391,2.389,23.907
228675,2.402,2.392,24.020
228690,2.411,2.394,24.113
228705,2.409,2.396,24.095
228720,2.424,2.398,24.235
228735,2.407,2.396,24.069
228750,2.410,2.398,24.100
228765,2.361,2.396,23.605
228780,2.377,2.396,23.767
228795,2.431,2.402,24.314
228810,2.438,2.407,24.384
228825,2.444,2.411,24.437
228840,2.419,2.412,24.191
228855,2.414,2.412,24.141
228870,2.408,2.411,24.079
228885,2.399,2.410,23.986
228900,2.408,2.410,24.075
228915,2.383,2.412,23.831
228930,2.401,2.414,24.006
228945,2.390,2.410,23.899
228960,2.381,2.405,23.809
228975,2.384,2.399,23.840
228990,2.401,2.397,24.010
229005,2.393,2.395,23.929
229020,2.393,2.393,23.932
229035,2.395,2.393,23.951
229050,2.363,2.388,23.630
229065,2.382,2.388,23.825
229080,2.378,2.386,23.784
229095,2.399,2.387,23.995
229110,2.389,2.388,23.895
229125,2.425,2.392,24.251
229140,2.410,2.393,24.102
229155,2.426,2.396,24.260
229170,2.438,2.401,24.376
229185,2.387,2.400,23.870
229200,2.380,2.402,23.801
229215,2.360,2.399,23.597
229230,2.403,2.402,24.034
229245,2.417,2.404,24.169
229260,2.427,2.407,24.269
229275,2.422,2.407,24.225
229290,2.420,2.408,24.204
229305,2.412,2.407,24.120
229320,2.390,2.402,23.903
229335,2.387,2.402,23.872
229350,2.409,2.405,24.093
229365,2.418,2.411,24.179
229380,2.428,2.413,24.276
229395,2.442,2.416,24.417
229410,2.414,2.414,24.142
229425,2.412,2.413,24.120
229440,2.374,2.409,23.741
229455,2.326,2.400,23.259
229470,2.336,2.395,23.364
229485,2.363,2.392,23.628
229500,2.355,2.387,23.545
229515,2.377,2.383,23.772
229530,2.377,2.378,23.770
229545,2.390,2.372,23.896
229560,2.409,2.372,24.094
229575,2.430,2.374,24.304
229590,2.439,2.380,24.394
229605,2.415,2.389,24.149
229620,2.416,2.397,24.158
229635,2.411,2.402,24.106
229650,2.375,2.404,23.749
229665,2.391,2.405,23.915
229680,2.401,2.408,24.007
229695,2.374,2.406,23.744
229710,2.393,2.405,23.932
229725,2.426,2.404,24.263
229740,2.425,2.403,24.255
229755,2.434,2.405,24.335
229770,2.438,2.407,24.380
229785,2.417,2.408,24.171
229800,2.430,2.413,24.302
229815,2.409,2.415,24.090
229830,2.409,2.416,24.089
229845,2.421,2.420,24.211
229860,2.440,2.425,24.397
229875,2.432,2.425,24.316
229890,2.410,2.424,24.102
229905,2.404,2.421,24.042
229920,2.414,2.419,24.141
229935,2.408,2.418,24.079
229950,2.427,2.417,24.270
229965,2.426,2.419,24.263
229980,2.416,2.420,24.164
229995,2.417,2.419,24.172
230010,2.443,2.420,24.430
230025,2.393,2.416,23.930
230040,2.424,2.417,24.244
230055,2.394,2.416,23.942
230070,2.418,2.417,24.177
230085,2.408,2.417,24.077
230100,2.379,2.412,23.789
230115,2.388,2.408,23.876
230130,2.398,2.406,23.981
230145,2.423,2.407,24.228
230160,2.429,2.405,24.289
230175,2.416,2.408,24.161
230190,2.388,2.404,23.885
230205,2.356,2.400,23.559
230220,2.396,2.398,23.956
230235,2.408,2.398,24.081
230250,2.414,2.402,24.140
230265,2.446,2.407,24.458
230280,2.435,2.411,24.353
230295,2.458,2.415,24.584
230310,2.436,2.415,24.358
230325,2.422,2.416,24.224
230340,2.416,2.419,24.160
230355,2.416,2.425,24.164
230370,2.444,2.430,24.436
230385,2.387,2.427,23.872
230400,2.305,2.417,23.051
230415,2.233,2.395,22.327
230430,2.190,2.371,21.901
230445,2.242,2.349,22.424
230460,2.250,2.331,22.495
230475,2.277,2.316,22.774
230490,2.309,2.305,23.094
230505,2.303,2.294,23.034
230520,2.340,2.284,23.403
230535,2.358,2.281,23.579
230550,2.385,2.289,23.850
230565,2.406,2.306,24.056
230580,2.391,2.326,23.911
230595,2.391,2.341,23.910
230610,2.384,2.354,23.837
230625,2.381,2.365,23.809
230640,2.385,2.372,23.846
230655,2.386,2.381,23.862
230670,2.404,2.387,24.044
230685,2.409,2.392,24.093
230700,2.400,2.394,24.004
230715,2.436,2.397,24.361
230730,2.409,2.399,24.091
230745,2.417,2.401,24.174
230760,2.428,2.406,24.283
230775,2.449,2.412,24.486
230790,2.454,2.419,24.544
230805,2.452,2.426,24.520
230820,2.452,2.431,24.516
230835,2.422,2.432,24.219
230850,2.442,2.436,24.416
230865,2.424,2.435,24.239
230880,2.424,2.436,24.237
230895,2.442,2.439,24.423
230910,2.428,2.439,24.285
230925,2.421,2.436,24.207
230940,2.448,2.435,24.481
230955,2.442,2.434,24.416
230970,2.457,2.435,24.574
230985,2.458,2.439,24.578
231000,2.454,2.440,24.537
231015,2.419,2.439,24.191
231030,2.471,2.444,24.708
231045,2.474,2.447,24.745
231060,2.458,2.450,24.576
231075,2.472,2.455,24.720
231090,2.494,2.460,24.945
231105,2.487,2.464,24.866
231120,2.383,2.457,23.826
231135,2.249,2.436,22.494
231150,2.319,2.423,23.190
231165,2.294,2.410,22.941
231180,2.368,2.400,23.676
231195,2.372,2.389,23.715
231210,2.391,2.383,23.906
231225,2.369,2.372,23.686
231240,2.412,2.364,24.120
231255,2.383,2.354,23.834
231270,2.415,2.357,24.155
231285,2.443,2.377,24.431
231300,2.439,2.389,24.392
231315,2.451,2.404,24.506
231330,2.393,2.407,23.930
231345,2.384,2.408,23.840
231360,2.409,2.410,24.093
231375,2.412,2.414,24.121
231390,2.462,2.419,24.622
231405,2.452,2.426,24.522
231420,2.445,2.429,24.450
231435,2.439,2.429,24.386
231450,2.424,2.427,24.239
231465,2.422,2.424,24.221
231480,2.455,2.430,24.546
231495,2.453,2.437,24.534
231510,2.468,2.443,24.679
231525,2.461,2.448,24.605
231540,2.421,2.444,24.210
231555,2.397,2.438,23.972
231570,2.411,2.435,24.105
231585,2.431,2.434,24.315
231600,2.461,2.438,24.609
231615,2.484,2.444,24.843
231630,2.418,2.441,24.180
231645,2.422,2.437,24.220
231660,2.431,2.434,24.309
231675,2.419,2.429,24.187
231690,2.424,2.430,24.239
231705,2.474,2.437,24.741
231720,2.458,2.442,24.580
231735,2.450,2.444,24.497
231750,2.482,2.446,24.823
231765,2.444,2.442,24.445
231780,2.460,2.446,24.597
231795,2.466,2.451,24.661
231810,2.443,2.452,24.431
231825,2.425,2.453,24.248
231840,2.424,2.453,24.242
231855,2.413,2.447,24.129
231870,2.420,2.443,24.200
231885,2.436,2.441,24.362
231900,2.418,2.435,24.179
231915,2.411,2.432,24.105
231930,2.420,2.428,24.201
231945,2.388,2.420,23.879
231960,2.417,2.417,24.165
231975,2.457,2.420,24.569
231990,2.470,2.425,24.700
232005,2.453,2.429,24.525
232020,2.450,2.432,24.502
232035,2.431,2.431,24.312
232050,2.448,2.434,24.478
232065,2.448,2.438,24.479
232080,2.420,2.438,24.204
232095,2.445,2.444,24.455
232110,2.447,2.447,24.471
232125,2.460,2.447,24.601
232140,2.425,2.443,24.253
232155,2.414,2.439,24.136
232170,2.431,2.437,24.307
232185,2.401,2.434,24.007
232200,2.430,2.432,24.298
232215,2.462,2.434,24.624
232230,2.455,2.437,24.551
232245,2.376,2.430,23.765
232260,2.370,2.422,23.704
232275,2.429,2.419,24.288
232290,2.404,2.417,24.035
232305,2.416,2.417,24.163
232320,2.424,2.417,24.237
232335,2.431,2.420,24.312
232350,2.431,2.420,24.310
232365,2.434,2.417,24.339
232380,2.456,2.417,24.562
232395,2.445,2.424,24.451
232410,2.399,2.427,23.990
232425,2.403,2.424,24.029
232440,2.416,2.426,24.158
232455,2.402,2.424,24.024
232470,2.423,2.424,24.229
232485,2.401,2.421,24.007
232500,2.395,2.417,23.955
232515,2.395,2.414,23.950
232530,2.398,2.408,23.979
232545,2.380,2.401,23.800
232560,2.342,2.395,23.417
232575,2.352,2.390,23.525
232590,2.363,2.385,23.632
232605,2.395,2.385,23.955
232620,2.415,2.384,24.154
232635,2.394,2.383,23.944
232650,2.377,2.381,23.766
232665,2.378,2.379,23.778
232680,2.412,2.381,24.120
232695,2.405,2.383,24.045
232710,2.421,2.391,24.206
232725,2.441,2.400,24.415
496560,2.475,2.459,24.749
496575,2.437,2.459,24.368
496575,2.437,2.459,24.368
496575,2.437,2.459,24.368
496575,2.437,2.459,24.368
496575,2.437,2.459,24.368
496575,2.437,2.459,24.368
496575,2.437,2.459,24.368
496575,2.437,2.459,24.368
496575,2.437,2.459,24.368
496575,2.437,2.459,24.368
496575,2.437,2.459,24.368
496575,2.437,2.459,24.368
496575,2.437,2.459,24.368
496575,2.437,2.459,24.368
496575,2.437,2.459,24.368
496575,2.437,2.459,24.368
496575,2.437,2.459,24.368
496575,2.437,2.459,24.368
496575,2.437,2.459,24.368
496575,2.437,2.459,24.368
496575,2.437,2.459,24.368
496575,2.437,2.459,24.368
496575,2.437,2.459,24.368
496575,2.437,2.459,24.368
496575,2.437,2.459,24.368
496575,2.437,2.459,24.368
496575,2.437,2.459,24.368
496575,2.437,2.459,24.368
496575,2.437,2.459,24.368
496575,2.437,2.459,24.368
496575,2.437,2.459,24.368
496575,2.437,2.459,24.368
496575,2.437,2.459,24.368
496575,2.437,2.459,24.368
496575,2.437,2.459,24.368
496590,2.422,2.454,24.225
496590,2.422,2.454,24.225
496590,2.422,2.454,24.225
496590,2.422,2.454,24.225
496590,2.422,2.454,24.225
496590,2.422,2.454,24.225
496590,2.422,2.454,24.225
496590,2.422,2.454,24.225
496590,2.422,2.454,24.225
496590,2.422,2.454,24.225
496590,2.422,2.454,24.225
496590,2.422,2.454,24.225
496590,2.422,2.454,24.225
496590,2.422,2.454,24.225
496590,2.422,2.454,24.225
496590,2.422,2.454,24.225
496590,2.422,2.454,24.225
496590,2.422,2.454,24.225
496590,2.422,2.454,24.225
496590,2.422,2.454,24.225
496590,2.422,2.454,24.225
496590,2.422,2.454,24.225
496590,2.422,2.454,24.225
496590,2.422,2.454,24.225
496590,2.422,2.454,24.225
496590,2.422,2.454,24.225
496590,2.422,2.454,24.225
496590,2.422,2.454,24.225
496590,2.422,2.454,24.225
496590,2.422,2.454,24.225
496590,2.422,2.454,24.225
496590,2.422,2.454,24.225
496590,2.422,2.454,24.225
496590,2.422,2.454,24.225
496590,2.422,2.454,24.225
496590,2.422,2.454,24.225
496590,2.422,2.454,24.225
496590,2.422,2.454,24.225
496590,2.422,2.454,24.225
496590,2.422,2.454,24.225
496590,2.422,2.454,24.225
496590,2.422,2.454,24.225
496590,2.422,2.454,24.225
496590,2.422,2.454,24.225
496590,2.422,2.454,24.225
496590,2.422,2.454,24.225
496590,2.422,2.454,24.225
496590,2.422,2.454,24.225
496590,2.422,2.454,24.225
496590,2.422,2.454,24.225
496590,2.422,2.454,24.225
496590,2.422,2.454,24.225
496590,2.422,2.454,24.225
496590,2.422,2.454,24.225
496590,2.422,2.454,24.225
496590,2.422,2.454,24.225
496590,2.422,2.454,24.225
496590,2.422,2.454,24.225
496590,2.422,2.454,24.225
496590,2.422,2.454,24.225
496590,2.422,2.454,24.225
496590,2.422,2.454,24.225
496590,2.422,2.454,24.225
496590,2.422,2.454,24.225
496590,2.422,2.454,24.225
496590,2.422,2.454,24.225
496590,2.422,2.454,24.225
496590,2.422,2.454,24.225
496590,2.422,2.454,24.225
496590,2.422,2.454,24.225
496590,2.422,2.454,24.225
496590,2.422,2.454,24.225
496590,2.422,2.454,24.225
496590,2.422,2.454,24.225
496590,2.422,2.454,24.225
496590,2.422,2.454,24.225
496590,2.422,2.454,24.225
496590,2.422,2.454,24.225
496590,2.422,2.454,24.225
496590,2.422,2.454,24.225
496590,2.422,2.454,24.225
496590,2.422,2.454,24.225
496590,2.422,2.454,24.225
496590,2.422,2.454,24.225
496590,2.422,2.454,24.225
496590,2.422,2.454,24.225
496590,2.422,2.454,24.225
496590,2.422,2.454,24.225
496590,2.422,2.454,24.225
496590,2.422,2.454,24.225
496590,2.422,2.454,24.225
496590,2.422,2.454,24.225
496590,2.422,2.454,24.225
496590,2.422,2.454,24.225
496590,2.422,2.454,24.225
496590,2.422,2.454,24.225
496590,2.422,2.454,24.225
496590,2.422,2.454,24.225
496590,2.422,2.454,24.225
496590,2.422,2.454,24.225
496590,2.422,2.454,24.225
496590,2.422,2.454,24.225
496590,2.422,2.454,24.225
496590,2.422,2.454,24.225
496590,2.422,2.454,24.225
496590,2.422,2.454,24.225
496590,2.422,2.454,24.225
496590,2.422,2.454,24.225
496590,2.422,2.454,24.225
496590,2.422,2.454,24.225
496590,2.422,2.454,24.225
496590,2.422,2.454,24.225
496590,2.422,2.454,24.225
496590,2.422,2.454,24.225
496590,2.422,2.454,24.225
496590,2.422,2.454,24.225
496590,2.422,2.454,24.225
496590,2.422,2.454,24.225
496590,2.422,2.454,24.225
496590,2.422,2.454,24.225
496590,2.422,2.454,24.225
496590,2.422,2.454,24.225
496590,2.422,2.454,24.225
496590,2.422,2.454,24.225
496590,2.422,2.454,24.225
496590,2.422,2.454,24.225
496590,2.422,2.454,24.225
496590,2.422,2.454,24.225
496590,2.422,2.454,24.225
496590,2.422,2.454,24.225
496590,2.422,2.454,24.225
496590,2.422,2.454,24.225
496590,2.422,2.454,24.225
496590,2.422,2.454,24.225
496590,2.422,2.454,24.225
496590,2.422,2.454,24.225
496590,2.422,2.454,24.225
496590,2.422,2.454,24.225
496590,2.422,2.454,24.225
496605,2.428,2.452,24.285
496620,2.467,2.456,24.675
496635,2.495,2.459,24.949
496650,2.497,2.463,24.969
496665,2.492,2.467,24.923
496680,2.489,2.468,24.886
496695,2.489,2.469,24.892
496710,2.463,2.468,24.626
496725,2.464,2.471,24.641
496740,2.476,2.476,24.756
496755,2.470,2.480,24.699
496770,2.465,2.480,24.646
496785,2.458,2.476,24.576
496800,2.508,2.477,25.077
496815,2.368,2.465,23.677
496830,2.306,2.447,23.061
496845,2.309,2.429,23.091
496860,2.331,2.415,23.312
496875,2.329,2.402,23.291
496890,2.377,2.392,23.774
496905,2.371,2.382,23.710
496920,2.386,2.374,23.862
496935,2.361,2.365,23.611
496950,2.384,2.352,23.837
496965,2.389,2.354,23.892
496980,2.415,2.365,24.148
496995,2.443,2.379,24.430
497010,2.442,2.390,24.420
497025,2.430,2.400,24.302
497040,2.409,2.403,24.086
497055,2.409,2.407,24.091
497070,2.414,2.410,24.142
497085,2.448,2.418,24.480
497100,2.437,2.424,24.369
497115,2.437,2.428,24.366
497130,2.414,2.428,24.142
497145,2.438,2.428,24.381
497160,2.391,2.423,23.912
497175,2.383,2.418,23.827
497190,2.422,2.419,24.220
497205,2.424,2.421,24.245
497220,2.428,2.422,24.281
497235,2.447,2.422,24.467
497250,2.417,2.420,24.169
497265,2.377,2.414,23.769
497280,2.380,2.411,23.801
497295,2.394,2.406,23.941
497310,2.404,2.408,24.042
497325,2.424,2.412,24.242
497340,2.408,2.410,24.085
497355,2.414,2.409,24.136
497370,2.402,2.407,24.018
497385,2.395,2.401,23.945
497400,2.401,2.400,24.009
497415,2.408,2.403,24.076
497430,2.436,2.409,24.359
497445,2.426,2.412,24.259
497460,2.417,2.413,24.169
497475,2.420,2.413,24.204
497490,2.406,2.412,24.056
497505,2.414,2.412,24.140
497520,2.422,2.414,24.225
497535,2.418,2.417,24.175
497550,2.407,2.417,24.072
497565,2.415,2.418,24.149
497580,2.388,2.413,23.879
497595,2.415,2.412,24.148
497610,2.425,2.413,24.254
497625,2.410,2.412,24.101
497640,2.423,2.414,24.231
497655,2.407,2.413,24.069
497670,2.439,2.415,24.389
497685,2.409,2.414,24.095
497700,2.416,2.415,24.160
497715,2.420,2.415,24.204
497730,2.411,2.418,24.106
497745,2.423,2.418,24.234
497760,2.409,2.417,24.095
497775,2.438,2.420,24.385
497790,2.411,2.418,24.105
497805,2.376,2.415,23.756
497820,2.404,2.412,24.040
497835,2.408,2.412,24.079
497850,2.429,2.413,24.292
497865,2.425,2.413,24.251
497880,2.398,2.412,23.985
497895,2.405,2.410,24.050
497910,2.426,2.412,24.264
497925,2.401,2.408,24.009
497940,2.399,2.407,23.990
497955,2.402,2.410,24.021
497970,2.413,2.411,24.128
497985,2.380,2.408,23.801
498000,2.454,2.410,24.536
498015,2.456,2.413,24.562
498030,2.460,2.420,24.600
498045,2.430,2.422,24.295
498060,2.447,2.424,24.474
498075,2.417,2.426,24.172
498090,2.441,2.430,24.413
498105,2.447,2.434,24.469
498120,2.490,2.442,24.896
498135,2.487,2.453,24.865
498150,2.485,2.456,24.854
498165,2.451,2.455,24.509
498180,2.447,2.454,24.475
498195,2.454,2.457,24.544
498210,2.465,2.458,24.651
498225,2.435,2.460,24.351
498240,2.424,2.459,24.245
498255,2.440,2.458,24.396
498270,2.363,2.445,23.626
498285,2.327,2.429,23.271
498300,2.342,2.415,23.415
498315,2.348,2.405,23.479
498330,2.353,2.395,23.534
498345,2.349,2.385,23.490
498360,2.359,2.374,23.591
498375,2.391,2.370,23.907
498390,2.356,2.363,23.559
498405,2.392,2.358,23.923
498420,2.374,2.359,23.739
498435,2.378,2.364,23.776
498450,2.399,2.370,23.991
498465,2.384,2.373,23.836
498480,2.378,2.376,23.785
498495,2.372,2.378,23.725
498510,2.372,2.380,23.721
498525,2.396,2.380,23.959
498540,2.413,2.386,24.130
498555,2.440,2.391,24.404
498570,2.418,2.395,24.184
498585,2.417,2.399,24.169
498600,2.405,2.400,24.046
498615,2.394,2.401,23.939
498630,2.403,2.403,24.026
498645,2.381,2.404,23.812
498660,2.399,2.407,23.995
498675,2.431,2.410,24.305
498690,2.415,2.410,24.155
498705,2.396,2.406,23.960
498720,2.381,2.402,23.814
498735,2.379,2.398,23.791
498750,2.389,2.397,23.888
498765,2.441,2.402,24.405
498780,2.467,2.408,24.673
498795,2.477,2.418,24.769
498810,2.480,2.426,24.799
498825,2.444,2.427,24.435
498840,2.394,2.425,23.936
498855,2.363,2.421,23.634
498870,2.331,2.416,23.309
498885,2.386,2.417,23.864
498900,2.412,2.419,24.120
498915,2.413,2.417,24.126
498930,2.413,2.411,24.126
498945,2.397,2.403,23.967
498960,2.371,2.392,23.711
498975,2.367,2.385,23.669
498990,2.384,2.384,23.837
499005,2.395,2.387,23.953
499020,2.406,2.394,24.062
499035,2.461,2.402,24.605
499050,2.418,2.402,24.180
499065,2.401,2.401,24.005
499080,2.398,2.400,23.983
499095,2.432,2.403,24.318
499110,2.449,2.411,24.489
499125,2.444,2.419,24.437
499140,2.436,2.424,24.359
499155,2.424,2.427,24.244
499170,2.424,2.429,24.237
499185,2.408,2.423,24.076
499200,2.409,2.422,24.094
499215,2.424,2.425,24.237
499230,2.429,2.428,24.286
499245,2.432,2.428,24.324
499260,2.414,2.424,24.135
499275,2.426,2.423,24.259
499290,2.432,2.422,24.316
499305,2.399,2.420,23.991
499320,2.407,2.418,24.069
499335,2.404,2.418,24.041
499350,2.400,2.417,23.997
499365,2.471,2.421,24.708
499380,2.338,2.412,23.377
499395,2.188,2.388,21.885
499410,2.075,2.354,20.745
499425,2.048,2.316,20.483
499440,2.142,2.287,21.419
499455,2.170,2.264,21.696
499470,2.207,2.244,22.065
499485,2.231,2.227,22.306
499500,2.245,2.211,22.448
499515,2.295,2.194,22.946
499530,2.339,2.194,23.387
499545,2.309,2.206,23.094
499560,2.338,2.232,23.379
499575,2.364,2.264,23.640
499590,2.386,2.288,23.862
499605,2.402,2.312,24.025
499620,2.370,2.328,23.696
499635,2.320,2.337,23.198
499650,2.231,2.335,22.314
499665,2.167,2.323,21.670
499680,2.126,2.301,21.264
499695,2.109,2.281,21.086
499710,2.107,2.258,21.074
499725,2.151,2.237,21.515
499740,2.153,2.214,21.530
499755,2.155,2.189,21.548
499770,2.178,2.170,21.784
499785,2.241,2.162,22.413
499800,2.283,2.167,22.835
499815,2.322,2.183,23.219
499830,2.340,2.204,23.398
499845,2.344,2.228,23.444
499860,2.341,2.251,23.411
499875,2.351,2.271,23.514
499890,2.348,2.290,23.481
499905,2.382,2.313,23.816
499920,2.435,2.339,24.353
499935,2.426,2.357,24.256
499950,2.397,2.369,23.974
499965,2.400,2.376,24.000
499980,2.386,2.381,23.861
499995,2.422,2.389,24.220
500010,2.396,2.394,23.961
500025,2.385,2.398,23.846
500040,2.359,2.399,23.588
500055,2.334,2.394,23.340
500070,2.327,2.383,23.270
500085,2.302,2.371,23.020
500100,2.329,2.364,23.287
500115,2.392,2.363,23.919
500130,2.382,2.363,23.815
500145,2.397,2.360,23.969
500160,2.397,2.360,23.969
500175,2.365,2.358,23.651
500190,2.364,2.359,23.642
500205,2.358,2.361,23.576
500220,2.382,2.367,23.816
500235,2.406,2.377,24.056
500250,2.422,2.386,24.225
500265,2.423,2.390,24.231
500280,2.434,2.395,24.341
500295,2.430,2.398,24.299
500310,2.449,2.403,24.487
500325,2.443,2.411,24.432
500340,2.449,2.420,24.486
500355,2.428,2.426,24.275
500370,2.418,2.430,24.185
500385,2.457,2.435,24.575
500400,2.451,2.438,24.505
500415,2.434,2.439,24.336
500430,2.424,2.438,24.235
500445,2.404,2.436,24.041
500460,2.448,2.436,24.481
500475,2.435,2.435,24.353
500490,2.437,2.434,24.368
500505,2.424,2.433,24.242
500520,2.404,2.432,24.037
500535,2.397,2.426,23.972
500550,2.404,2.421,24.039
500565,2.425,2.420,24.246
500580,2.447,2.423,24.471
500595,2.439,2.426,24.386
500610,2.436,2.425,24.360
500625,2.432,2.424,24.321
500640,2.435,2.424,24.351
500655,2.413,2.423,24.130
500670,2.402,2.423,24.019
500685,2.408,2.424,24.079
500700,2.433,2.427,24.330
500715,2.429,2.427,24.294
500730,2.421,2.425,24.207
500745,2.414,2.422,24.137
500760,2.407,2.419,24.071
500775,2.426,2.419,24.263
500790,2.428,2.418,24.280
500805,2.424,2.419,24.237
500820,2.454,2.424,24.543
500835,2.432,2.427,24.321
500850,2.396,2.423,23.964
500865,2.408,2.421,24.084
500880,2.407,2.420,24.069
500895,2.385,2.417,23.855
500910,2.420,2.418,24.195
500925,2.418,2.417,24.180
500940,2.418,2.416,24.185
500955,2.433,2.417,24.331
500970,2.410,2.413,24.104
500985,2.390,2.409,23.896
501000,2.536,2.423,25.361
501015,2.707,2.452,27.065
501030,2.875,2.499,28.753
501045,3.027,2.563,30.271
501060,3.124,2.634,31.244
501075,3.153,2.707,31.532
501090,3.184,2.784,31.845
501105,3.197,2.860,31.967
501120,3.200,2.939,31.999
501135,3.220,3.022,32.201
501150,3.228,3.092,32.285
501165,3.233,3.144,32.329
501180,3.195,3.176,31.954
501195,3.173,3.191,31.730
501210,3.112,3.190,31.115
501225,3.073,3.182,30.728
501240,3.015,3.165,30.153
501255,2.995,3.144,29.952
501270,2.936,3.118,29.364
501285,2.885,3.085,28.853
501300,2.830,3.045,28.298
501315,2.781,3.000,27.812
501330,2.780,2.958,27.804
501345,2.759,2.917,27.591
501360,2.684,2.874,26.840
501375,2.647,2.831,26.466
501390,2.628,2.793,26.276
501405,2.567,2.750,25.674
501420,2.563,2.712,25.628
501435,2.575,2.681,25.747
501450,2.568,2.655,25.681
501465,2.514,2.628,25.141
501480,2.507,2.601,25.071
501495,2.460,2.571,24.602
501510,2.531,2.556,25.312
501525,2.494,2.541,24.937
501540,2.479,2.526,24.794
501555,2.457,2.515,24.571
501570,2.464,2.505,24.636
501585,2.443,2.492,24.431
501600,2.454,2.480,24.545
501615,2.462,2.475,24.621
501630,2.473,2.472,24.734
501645,2.500,2.476,25.004
501660,2.467,2.469,24.674
501675,2.440,2.464,24.404
501690,2.450,2.461,24.504
501705,2.439,2.459,24.394
501720,2.435,2.457,24.351
501735,2.445,2.457,24.452
501750,2.439,2.455,24.389
501765,2.435,2.453,24.349
501780,2.433,2.449,24.331
501795,2.424,2.441,24.244
501810,2.422,2.436,24.221
501825,2.419,2.434,24.193
501840,2.435,2.433,24.347
501855,2.390,2.428,23.899
501870,2.399,2.424,23.988
501885,2.402,2.420,24.023
501900,2.441,2.420,24.405
501915,2.388,2.415,23.884
501930,2.421,2.414,24.211
501945,2.422,2.414,24.222
501960,2.398,2.412,23.984
501975,2.424,2.412,24.244
501990,2.418,2.410,24.181
502005,2.385,2.410,23.846
502020,2.387,2.409,23.866
502035,2.402,2.409,24.024
502050,2.416,2.406,24.159
502065,2.439,2.411,24.392
502080,2.416,2.411,24.160
502095,2.411,2.410,24.115
502110,2.408,2.411,24.076
502125,2.416,2.410,24.163
502140,2.417,2.410,24.165
502155,2.447,2.416,24.472
502170,2.433,2.421,24.329
502185,2.441,2.424,24.407
502200,2.406,2.423,24.056
502215,2.400,2.419,23.996
502230,2.394,2.417,23.944
502245,2.432,2.419,24.321
502260,2.433,2.422,24.330
502275,2.405,2.421,24.053
502290,2.405,2.420,24.046
502305,2.403,2.415,24.030
502320,2.408,2.413,24.085
502335,2.438,2.412,24.376
502350,2.426,2.414,24.264
502365,2.423,2.417,24.228
502380,2.427,2.420,24.270
502395,2.424,2.419,24.235
502410,2.420,2.418,24.202
502425,2.446,2.422,24.461
502440,2.421,2.424,24.214
502455,2.331,2.416,23.314
502470,2.156,2.391,21.561
502485,1.959,2.343,19.591
502500,1.796,2.280,17.965
502515,1.684,2.207,16.836
502530,1.610,2.125,16.103
502545,1.542,2.037,15.416
502560,1.487,1.943,14.868
502575,1.460,1.845,14.599
502590,1.457,1.748,14.574
502605,1.468,1.662,14.683
502620,1.506,1.597,15.060
502635,1.544,1.555,15.440
502650,1.587,1.535,15.875
502665,1.653,1.531,16.530
502680,1.710,1.541,17.101
502695,1.779,1.565,17.787
502710,1.877,1.604,18.770
502725,1.946,1.653,19.461
502740,2.007,1.708,20.075
502755,2.069,1.768,20.694
502770,2.070,1.824,20.702
502785,2.072,1.877,20.722
502800,2.131,1.932,21.312
502815,2.139,1.980,21.391
502830,2.190,2.028,21.896
502845,2.238,2.074,22.380
502860,2.253,2.112,22.526
502875,2.251,2.142,22.515
502890,2.281,2.169,22.808
502905,2.322,2.195,23.219
502920,2.340,2.222,23.400
502935,2.335,2.248,23.346
502950,2.333,2.268,23.330
502965,2.341,2.288,23.406
502980,2.362,2.305,23.619
502995,2.389,2.321,23.891
503010,2.414,2.337,24.145
503025,2.408,2.352,24.084
503040,2.415,2.366,24.148
503055,2.425,2.376,24.255
503070,2.442,2.386,24.419
503085,2.412,2.394,24.125
503100,2.395,2.400,23.949
503115,2.410,2.407,24.101
503130,2.388,2.410,23.884
503145,2.397,2.411,23.966
503160,2.389,2.408,23.889
503175,2.397,2.407,23.972
503190,2.427,2.408,24.270
503205,2.419,2.408,24.186
503220,2.408,2.404,24.085
503235,2.389,2.402,23.894
503250,2.412,2.404,24.120
503265,2.439,2.407,24.390
503280,2.398,2.408,23.981
503295,2.413,2.409,24.134
503310,2.415,2.412,24.149
503325,2.421,2.414,24.210
503340,2.420,2.413,24.195
503355,2.411,2.413,24.105
503370,2.397,2.411,23.972
503385,2.394,2.412,23.940
503400,2.414,2.412,24.136
503415,2.396,2.408,23.958
503430,2.390,2.407,23.896
503445,2.414,2.407,24.142
503460,2.403,2.406,24.034
503475,2.382,2.402,23.818
503490,2.405,2.401,24.055
503505,2.412,2.401,24.116
503520,2.404,2.401,24.041
503535,2.415,2.404,24.155
503550,2.446,2.407,24.464
503565,2.441,2.411,24.411
503580,2.374,2.410,23.740
503595,2.477,2.416,24.775
503610,2.631,2.439,26.309
503625,2.803,2.481,28.028
503640,2.999,2.540,29.990
503655,3.126,2.612,31.261
503670,3.230,2.694,32.295
503685,3.249,2.778,32.487
503700,3.254,2.858,32.539
503715,3.258,2.940,32.576
503730,3.243,3.027,32.435
503745,3.265,3.106,32.650
503760,3.211,3.164,32.111
503775,3.184,3.202,31.839
503790,3.156,3.218,31.560
503805,3.094,3.214,30.941
503820,3.061,3.197,30.609
503835,3.004,3.173,30.038
503850,2.920,3.140,29.196
503865,2.847,3.098,28.468
503880,2.800,3.054,27.998
503895,2.715,2.999,27.154
503910,2.651,2.943,26.507
503925,2.678,2.893,26.785
503940,2.663,2.843,26.628
503955,2.683,2.802,26.833
503970,2.656,2.762,26.560
503985,2.644,2.726,26.437
504000,2.623,2.696,26.231
504015,2.584,2.670,25.842
504030,2.571,2.647,25.706
504045,2.509,2.626,25.094
504060,2.525,2.614,25.252
504075,2.530,2.599,25.301
504090,2.523,2.585,25.235
504105,2.495,2.566,24.954
504120,2.464,2.547,24.645
504135,2.488,2.531,24.876
504150,2.460,2.515,24.601
504165,2.445,2.501,24.448
504180,2.445,2.489,24.454
504195,2.448,2.482,24.479
504210,2.432,2.473,24.318
504225,2.437,2.464,24.374
504240,2.418,2.453,24.176
504255,2.460,2.450,24.599
504270,2.426,2.446,24.257
504285,2.413,2.438,24.130
504300,2.407,2.433,24.066
504315,2.425,2.431,24.246
504330,2.417,2.428,24.167
504345,2.410,2.424,24.099
504360,2.431,2.424,24.314
504375,2.431,2.424,24.305
504390,2.442,2.426,24.421
504405,2.420,2.422,24.198
504420,2.457,2.425,24.569
504435,2.441,2.428,24.413
504450,2.421,2.429,24.214
504465,2.411,2.428,24.106
504480,2.415,2.428,24.146
504495,2.401,2.427,24.010
504510,2.420,2.426,24.200
504525,2.420,2.425,24.196
504540,2.440,2.425,24.400
504555,2.421,2.425,24.206
504570,2.400,2.419,23.997
504585,2.407,2.415,24.070
504600,2.394,2.413,23.941
504615,2.388,2.411,23.883
504630,2.400,2.409,24.001
504645,2.415,2.410,24.146
504660,2.458,2.414,24.585
504675,2.417,2.414,24.170
504690,2.425,2.413,24.254
504705,2.475,2.418,24.749
504720,2.340,2.412,23.399
504735,2.196,2.391,21.964
504750,2.037,2.355,20.374
504765,1.878,2.304,18.778
504780,1.742,2.238,17.425
504795,1.595,2.157,15.955
504810,1.514,2.062,15.140
504825,1.474,1.968,14.735
504840,1.496,1.875,14.959
504855,1.513,1.779,15.135
504870,1.542,1.699,15.421
504885,1.612,1.640,16.125
504900,1.645,1.601,16.445
504915,1.693,1.583,16.929
504930,1.796,1.588,17.964
504945,1.898,1.618,18.980
504960,1.971,1.664,19.710
504975,2.071,1.724,20.708
504990,2.167,1.791,21.669
505005,2.148,1.854,21.479
505020,2.113,1.911,21.129
505035,2.106,1.961,21.059
505050,2.156,2.012,21.564
505065,2.208,2.063,22.081
505080,2.229,2.107,22.288
505095,2.264,2.143,22.636
505110,2.274,2.173,22.736
505125,2.290,2.195,22.901
505140,2.321,2.211,23.209
505155,2.315,2.228,23.149
505170,2.346,2.251,23.459
505185,2.382,2.278,23.818
505200,2.369,2.300,23.693
505215,2.372,2.316,23.718
505230,2.397,2.333,23.972
505245,2.414,2.348,24.136
505260,2.419,2.362,24.194
505275,2.401,2.374,24.005
505290,2.430,2.384,24.298
505305,2.447,2.398,24.470
505320,2.449,2.408,24.489
505335,2.453,2.415,24.529
505350,2.450,2.423,24.499
505365,2.452,2.431,24.520
505380,2.418,2.433,24.175
505395,2.340,2.426,23.400
505410,2.286,2.412,22.860
505425,2.327,2.405,23.269
505440,2.319,2.394,23.185
505455,2.332,2.382,23.317
505470,2.355,2.373,23.547
505485,2.362,2.364,23.621
505500,2.408,2.360,24.075
505515,2.421,2.357,24.209
505530,2.448,2.360,24.476
505545,2.473,2.373,24.734
505560,2.431,2.387,24.315
505575,2.393,2.394,23.929
505590,2.399,2.402,23.993
505605,2.377,2.407,23.766
505620,2.399,2.411,23.990
505635,2.404,2.415,24.044
505650,2.389,2.413,23.888
505665,2.401,2.411,24.015
505680,2.426,2.409,24.261
505695,2.430,2.405,24.296
505710,2.426,2.404,24.256
505725,2.421,2.407,24.205
505740,2.466,2.414,24.655
505755,2.471,2.423,24.709
505770,2.459,2.429,24.589
505785,2.454,2.434,24.535
505800,2.470,2.442,24.696
505815,2.458,2.448,24.576
505830,2.445,2.450,24.454
505845,2.410,2.448,24.102
505860,2.444,2.450,24.435
505875,2.418,2.449,24.176
505890,2.438,2.447,24.378
505905,2.401,2.440,24.010
505920,2.462,2.440,24.620
505935,2.443,2.439,24.426
505950,2.362,2.428,23.620
505965,2.580,2.440,25.802
505980,2.781,2.474,27.809
505995,2.917,2.524,29.170
506010,3.022,2.582,30.220
506025,3.133,2.654,31.327
506040,3.160,2.726,31.596
506055,3.163,2.802,31.630
506070,3.193,2.875,31.930
506085,3.181,2.949,31.809
506100,3.176,3.031,31.763
506115,3.128,3.085,31.285
506130,3.081,3.115,30.810
506145,3.035,3.127,30.352
506160,2.999,3.125,29.989
506175,2.964,3.108,29.640
506190,2.951,3.087,29.505
506205,2.867,3.058,28.673
506220,2.807,3.019,28.075
506235,2.782,2.979,27.822
506250,2.754,2.937,27.541
506265,2.737,2.898,27.369
506280,2.696,2.859,26.964
506295,2.695,2.825,26.949
506310,2.659,2.791,26.586
506325,2.649,2.760,26.493
506340,2.590,2.724,25.904
506355,2.549,2.692,25.491
506370,2.549,2.666,25.486
506385,2.547,2.643,25.472
506400,2.550,2.622,25.503
506415,2.537,2.602,25.366
506430,2.561,2.589,25.611
506445,2.513,2.570,25.130
506460,2.497,2.554,24.965
506475,2.495,2.539,24.946
506490,2.484,2.528,24.838
506505,2.472,2.520,24.724
506520,2.464,2.512,24.635
506535,2.426,2.500,24.257
506550,2.422,2.487,24.219
506565,2.415,2.475,24.148
506580,2.413,2.460,24.128
506595,2.446,2.453,24.464
506610,2.417,2.445,24.171
506625,2.411,2.437,24.113
506640,2.411,2.430,24.113
506655,2.410,2.423,24.100
506670,2.391,2.416,23.911
506685,2.424,2.416,24.244
506700,2.446,2.419,24.464
506715,2.425,2.420,24.251
506730,2.463,2.425,24.631
506745,2.471,2.427,24.713
506760,2.445,2.430,24.449
506775,2.431,2.432,24.309
506790,2.383,2.429,23.826
506805,2.410,2.429,24.100
506820,2.416,2.431,24.161
506835,2.420,2.431,24.198
506850,2.441,2.431,24.415
506865,2.415,2.429,24.146
506880,2.454,2.429,24.544
506895,2.483,2.430,24.826
506910,2.514,2.437,25.145
506925,2.547,2.448,25.472
506940,2.570,2.467,25.702
506955,2.543,2.480,25.431
506970,2.507,2.490,25.073
506985,2.489,2.496,24.889
507000,2.442,2.497,24.424
507015,2.451,2.500,24.506
507030,2.458,2.500,24.578
507045,2.457,2.498,24.571
507060,2.463,2.493,24.626
507075,2.452,2.483,24.516
507090,2.451,2.471,24.511
507105,2.422,2.459,24.222
507120,2.389,2.447,23.891
507135,2.438,2.442,24.381
507150,2.411,2.439,24.114
507165,2.394,2.434,23.941
507180,2.384,2.426,23.840
507195,2.400,2.420,24.004
507210,2.416,2.416,24.156
507225,2.401,2.411,24.005
507240,2.401,2.406,24.010
507255,2.366,2.400,23.659
507270,2.403,2.401,24.029
507285,2.406,2.398,24.060
507300,2.390,2.396,23.897
507315,2.382,2.395,23.816
507330,2.374,2.394,23.735
507345,2.380,2.392,23.800
507360,2.378,2.388,23.781
507375,2.346,2.382,23.461
507390,2.355,2.378,23.550
507405,2.367,2.378,23.674
507420,2.415,2.379,24.155
507435,2.380,2.377,23.801
507450,2.369,2.375,23.694
507465,2.403,2.377,24.030
507480,2.376,2.377,23.757
507495,2.360,2.375,23.596
507510,2.392,2.376,23.916
507525,2.396,2.381,23.964
507540,2.417,2.388,24.174
507555,2.393,2.390,23.927
507570,2.380,2.387,23.798
507585,2.384,2.387,23.839
507600,2.398,2.390,23.976
507615,2.420,2.391,24.198
507630,2.401,2.394,24.015
507645,2.414,2.400,24.145
507660,2.375,2.398,23.750
507675,2.392,2.397,23.916
507690,2.377,2.393,23.771
507705,2.401,2.394,24.006
507720,2.389,2.395,23.886
507735,2.358,2.392,23.577
507750,2.385,2.391,23.850
507765,2.400,2.389,24.001
507780,2.407,2.390,24.072
507795,2.411,2.389,24.109
507810,2.384,2.390,23.839
507825,2.365,2.388,23.655
507840,2.403,2.390,24.034
507855,2.411,2.391,24.115
507870,2.415,2.394,24.148
507885,2.418,2.400,24.177
507900,2.409,2.402,24.091
507915,2.392,2.402,23.925
507930,2.437,2.405,24.372
507945,2.377,2.401,23.770
507960,2.408,2.404,24.076
507975,2.283,2.395,22.831
507990,2.256,2.381,22.557
508005,2.143,2.354,21.432
508020,2.013,2.314,20.125
508035,1.952,2.267,19.515
508050,1.899,2.216,18.989
508065,1.907,2.167,19.073
508080,1.903,2.114,19.026
508095,1.923,2.069,19.228
508110,1.913,2.019,19.130
508125,1.937,1.984,19.372
508140,1.932,1.952,19.324
508155,1.940,1.932,19.400
508170,1.983,1.929,19.830
508185,1.989,1.933,19.894
508200,2.036,1.946,20.364
508215,2.045,1.960,20.452
508230,2.069,1.977,20.689
508245,2.132,1.998,21.315
508260,2.147,2.021,21.470
508275,2.147,2.042,21.467
508290,2.154,2.064,21.536
508305,2.178,2.088,21.775
508320,2.205,2.110,22.046
508335,2.232,2.134,22.323
508350,2.227,2.153,22.273
508365,2.265,2.175,22.647
508380,2.225,2.191,22.248
508395,2.236,2.201,22.362
508410,2.226,2.209,22.261
508425,2.257,2.220,22.574
508440,2.286,2.234,22.857
508455,2.297,2.246,22.974
508470,2.299,2.255,22.992
508485,2.285,2.260,22.849
508500,2.303,2.268,23.025
508515,2.314,2.273,23.139
508530,2.347,2.285,23.466
508545,2.353,2.297,23.529
508560,2.342,2.308,23.416
508575,2.382,2.321,23.823
508590,2.415,2.334,24.149
508605,2.404,2.344,24.036
508620,2.423,2.357,24.228
508635,2.402,2.368,24.025
508650,2.416,2.380,24.160
508665,2.386,2.387,23.861
508680,2.350,2.387,23.503
508695,2.381,2.390,23.809
508710,2.418,2.398,24.180
508725,2.423,2.402,24.234
508740,2.403,2.401,24.029
508755,2.411,2.401,24.106
508770,2.403,2.399,24.028
508785,2.409,2.400,24.090
508800,2.400,2.398,23.997
508815,2.287,2.388,22.868
508830,2.210,2.374,22.099
508845,2.135,2.350,21.349
508860,2.086,2.317,20.859
508875,2.078,2.282,20.775
508890,2.102,2.252,21.024
508905,2.115,2.222,21.154
508920,2.136,2.196,21.359
508935,2.158,2.171,21.583
508950,2.187,2.149,21.870
508965,2.163,2.137,21.628
508980,2.168,2.133,21.680
508995,2.198,2.139,21.981
509010,2.197,2.150,21.971
509025,2.216,2.164,22.157
509040,2.255,2.179,22.549
509055,2.243,2.192,22.434
509070,2.236,2.202,22.359
509085,2.283,2.215,22.827
509100,2.299,2.226,22.995
509115,2.299,2.239,22.991
509130,2.308,2.253,23.079
509145,2.345,2.268,23.454
509160,2.328,2.281,23.281
509175,2.306,2.290,23.055
509190,2.309,2.296,23.090
509205,2.329,2.304,23.286
509220,2.353,2.316,23.534
509235,2.367,2.324,23.666
509250,2.413,2.336,24.128
509265,2.392,2.345,23.923
509280,2.378,2.352,23.780
509295,2.388,2.356,23.875
509310,2.391,2.362,23.914
509325,2.396,2.372,23.956
509340,2.404,2.381,24.036
509355,2.411,2.389,24.115
509370,2.408,2.395,24.081
509385,2.427,2.401,24.274
509400,2.389,2.398,23.894
509415,2.389,2.398,23.890
509430,2.395,2.400,23.955
509445,2.408,2.402,24.080
509460,2.440,2.407,24.400
509475,2.468,2.414,24.676
509490,2.459,2.420,24.592
509505,2.421,2.421,24.214
509520,2.401,2.420,24.009
509535,2.421,2.419,24.209
509550,2.402,2.420,24.023
509565,2.421,2.424,24.215
509580,2.430,2.427,24.298
509595,2.416,2.428,24.159
509610,2.428,2.427,24.276
509625,2.391,2.419,23.911
509640,2.424,2.415,24.236
509655,2.430,2.416,24.298
509670,2.418,2.418,24.185
509685,2.406,2.417,24.064
509700,2.427,2.419,24.270
509715,2.440,2.421,24.401
509730,2.439,2.422,24.388
509745,2.453,2.426,24.530
509760,2.451,2.428,24.505
509775,2.451,2.434,24.510
509790,2.432,2.435,24.321
509805,2.386,2.430,23.860
509820,2.552,2.444,25.517
509835,2.703,2.473,27.025
509850,2.838,2.514,28.381
509865,2.976,2.568,29.761
509880,3.102,2.634,31.015
509895,3.223,2.711,32.234
509910,3.289,2.795,32.886
509925,3.316,2.882,33.161
509940,3.330,2.971,33.299
509955,3.345,3.067,33.449
509970,3.294,3.141,32.938
509985,3.315,3.203,33.150
510000,3.275,3.246,32.754
510015,3.274,3.276,32.737
510030,3.210,3.287,32.095
510045,3.143,3.279,31.426
510060,3.109,3.261,31.086
510075,3.047,3.234,30.474
510090,2.970,3.198,29.702
510105,2.935,3.157,29.354
510120,2.853,3.113,28.531
510135,2.824,3.064,28.241
510150,2.819,3.018,28.185
510165,2.769,2.968,27.689
510180,2.742,2.921,27.420
510195,2.713,2.878,27.130
510210,2.690,2.836,26.904
510225,2.675,2.799,26.748
510240,2.644,2.766,26.437
510255,2.590,2.732,25.903
510270,2.578,2.704,25.782
510285,2.533,2.675,25.331
510300,2.533,2.647,25.329
510315,2.503,2.620,25.028
510330,2.507,2.597,25.075
510345,2.519,2.577,25.185
510360,2.501,2.558,25.006
510375,2.481,2.539,24.810
510390,2.458,2.520,24.584
510405,2.453,2.507,24.526
510420,2.464,2.495,24.640
510435,2.450,2.487,24.501
510450,2.472,2.481,24.716
510465,2.486,2.479,24.858
510480,2.457,2.474,24.574
510495,2.480,2.470,24.795
510510,2.504,2.470,25.039
510525,2.492,2.472,24.921
510540,2.429,2.469,24.292
510555,2.426,2.466,24.259
510570,2.413,2.461,24.128
510585,2.472,2.463,24.721
510600,2.464,2.462,24.641
510615,2.445,2.458,24.450
510630,2.456,2.458,24.560
510645,2.440,2.454,24.399
510660,2.415,2.445,24.153
510675,2.441,2.440,24.415
510690,2.433,2.441,24.334
510705,2.438,2.442,24.385
510720,2.418,2.442,24.177
510735,2.420,2.437,24.199
510750,2.420,2.433,24.198
510765,2.414,2.430,24.144
510780,2.405,2.424,24.048
510795,2.447,2.425,24.475
510810,2.451,2.429,24.509
510825,2.437,2.428,24.374
510840,2.436,2.429,24.362
510855,2.420,2.427,24.198
510870,2.435,2.429,24.353
510885,2.426,2.429,24.257
510900,2.284,2.416,22.841
510915,2.126,2.387,21.264
510930,1.962,2.343,19.618
510945,1.824,2.280,18.241
510960,1.737,2.209,17.368
510975,1.642,2.129,16.420
510990,1.591,2.045,15.906
511005,1.556,1.958,15.559
511020,1.549,1.870,15.489
511035,1.554,1.782,15.539
511050,1.560,1.710,15.600
511065,1.590,1.656,15.904
511080,1.616,1.622,16.157
511095,1.620,1.601,16.201
511110,1.662,1.594,16.618
511125,1.748,1.604,17.476
511140,1.871,1.633,18.708
511155,1.970,1.674,19.698
511170,2.066,1.726,20.664
511185,2.040,1.774,20.404
511200,2.020,1.820,20.204
511215,2.012,1.862,20.118
511230,2.019,1.903,20.191
511245,2.053,1.946,20.531
511260,2.094,1.989,20.942
511275,2.115,2.026,21.151
511290,2.153,2.054,21.531
511305,2.171,2.074,21.706
511320,2.220,2.090,22.205
511335,2.212,2.107,22.116
511350,2.253,2.130,22.529
511365,2.284,2.157,22.840
511380,2.283,2.184,22.833
511395,2.316,2.210,23.165
511410,2.313,2.232,23.132
511425,2.307,2.251,23.074
511440,2.329,2.269,23.291
511455,2.354,2.287,23.542
511470,2.387,2.304,23.874
511485,2.408,2.324,24.076
511500,2.416,2.340,24.161
511515,2.384,2.350,23.835
511530,2.377,2.359,23.769
511545,2.386,2.366,23.856
511560,2.403,2.375,24.028
511575,2.430,2.387,24.298
511590,2.431,2.397,24.309
511605,2.396,2.402,23.956
511620,2.409,2.404,24.094
511635,2.416,2.405,24.161
511650,2.412,2.404,24.121
511665,2.398,2.406,23.976
511680,2.412,2.409,24.121
511695,2.421,2.413,24.206
511710,2.417,2.414,24.172
511725,2.418,2.413,24.175
511740,2.398,2.410,23.980
511755,2.386,2.409,23.859
511770,2.421,2.410,24.206
511785,2.435,2.412,24.354
511800,2.428,2.413,24.278
511815,2.425,2.416,24.248
511830,2.402,2.415,24.021
511845,2.409,2.414,24.089
511860,2.404,2.412,24.040
511875,2.397,2.410,23.971
511890,2.392,2.410,23.924
511905,2.384,2.410,23.844
511920,2.399,2.408,23.993
511935,2.416,2.406,24.161
511950,2.433,2.406,24.326
511965,2.384,2.402,23.839
511980,2.535,2.415,25.352
511995,2.688,2.443,26.884
512010,2.839,2.487,28.391
512025,2.977,2.545,29.771
512040,3.099,2.616,30.990
512055,3.179,2.695,31.794
512070,3.250,2.780,32.505
512085,3.269,2.865,32.692
512100,3.283,2.951,32.831
512115,3.304,3.043,33.041
512130,3.299,3.119,32.990
512145,3.283,3.178,32.826
512160,3.196,3.214,31.956
512175,3.165,3.233,31.646
512190,3.100,3.233,30.998
512205,3.117,3.227,31.169
512220,3.077,3.209,30.767
512235,3.016,3.184,30.160
512250,2.952,3.151,29.516
512265,2.889,3.109,28.886
512280,2.895,3.069,28.948
512295,2.832,3.024,28.319
512310,2.797,2.984,27.966
512325,2.744,2.942,27.441
512340,2.723,2.904,27.230
512355,2.711,2.863,27.109
512370,2.673,2.823,26.734
512385,2.653,2.787,26.532
512400,2.614,2.753,26.140
512415,2.570,2.721,25.705
512430,2.558,2.688,25.581
512445,2.535,2.658,25.346
512460,2.488,2.627,24.879
512475,2.506,2.603,25.056
512490,2.522,2.583,25.224
512505,2.543,2.566,25.433
512520,2.525,2.551,25.251
512535,2.498,2.536,24.979
512550,2.487,2.523,24.873
512565,2.483,2.515,24.829
512580,2.468,2.506,24.681
512595,2.466,2.499,24.662
512610,2.428,2.493,24.280
512625,2.440,2.486,24.403
512640,2.475,2.481,24.753
512655,2.435,2.471,24.351
512670,2.399,2.458,23.990
512685,2.389,2.447,23.894
512700,2.403,2.439,24.031
512715,2.420,2.432,24.202
512730,2.446,2.430,24.462
512745,2.433,2.427,24.331
512760,2.425,2.427,24.248
512775,2.430,2.426,24.304
512790,2.411,2.419,24.114
512805,2.405,2.416,24.048
512820,2.419,2.418,24.186
512835,2.418,2.421,24.183
512850,2.445,2.425,24.450
512865,2.440,2.427,24.404
512880,2.425,2.425,24.248
512895,2.379,2.420,23.786
512910,2.400,2.417,23.996
512925,2.417,2.416,24.165
512940,2.399,2.415,23.991
512955,2.419,2.416,24.193
512970,2.398,2.414,23.980
512985,2.373,2.409,23.726
513000,2.352,2.400,23.525
513015,2.335,2.390,23.347
513030,2.346,2.382,23.464
513045,2.376,2.382,23.764
513060,2.429,2.384,24.289
513075,2.392,2.382,23.923
513090,2.354,2.378,23.540
513105,2.372,2.373,23.716
513120,2.383,2.371,23.827
513135,2.357,2.370,23.573
513150,2.392,2.374,23.923
513165,2.391,2.379,23.909
513180,2.425,2.387,24.255
513195,2.423,2.392,24.229
513210,2.430,2.392,24.302
513225,2.409,2.394,24.094
513240,2.409,2.399,24.094
513255,2.380,2.400,23.801
513270,2.371,2.399,23.710
513285,2.421,2.405,24.215
513300,2.400,2.406,24.002
513315,2.409,2.408,24.093
513330,2.390,2.404,23.900
513345,2.382,2.400,23.825
513360,2.389,2.396,23.892
513375,2.387,2.394,23.874
513390,2.390,2.392,23.903
513405,2.372,2.391,23.719
513420,2.364,2.391,23.639
513435,2.363,2.385,23.631
513450,2.360,2.381,23.600
513465,2.373,2.377,23.734
513480,2.393,2.377,23.926
513495,2.388,2.378,23.885
513510,2.407,2.380,24.065
513525,2.424,2.383,24.241
513540,2.440,2.388,24.396
513555,2.421,2.393,24.213
513570,2.406,2.398,24.060
513585,2.405,2.402,24.051
513600,2.406,2.406,24.060
513615,2.431,2.412,24.309
513630,2.414,2.414,24.139
513645,2.444,2.420,24.437
513660,2.416,2.421,24.160
513675,2.286,2.407,22.864
513690,2.221,2.385,22.208
513705,2.124,2.355,21.241
513720,2.040,2.319,20.399
513735,2.002,2.278,20.019
513750,1.915,2.229,19.151
513765,1.878,2.174,18.782
513780,1.848,2.117,18.476
513795,1.822,2.055,18.222
513810,1.874,2.001,18.736
513825,1.888,1.961,18.880
513840,1.910,1.930,19.104
513855,1.913,1.909,19.128
513870,1.895,1.894,18.950
513885,1.916,1.886,19.160
513900,1.957,1.890,19.568
513915,2.004,1.903,20.044
513930,2.035,1.921,20.346
513945,2.074,1.947,20.737
513960,2.084,1.968,20.841
513975,2.075,1.986,20.745
513990,2.095,2.005,20.951
514005,2.144,2.028,21.437
514020,2.136,2.052,21.365
514035,2.191,2.079,21.906
514050,2.206,2.104,22.059
514065,2.214,2.125,22.145
514080,2.219,2.144,22.191
514095,2.266,2.163,22.664
514110,2.282,2.183,22.816
514125,2.306,2.206,23.056
514140,2.316,2.228,23.163
514155,2.316,2.245,23.157
514170,2.297,2.261,22.966
514185,2.322,2.274,23.216
514200,2.340,2.288,23.403
514215,2.327,2.299,23.269
514230,2.299,2.307,22.994
514245,2.288,2.309,22.876
514260,2.325,2.313,23.250
514275,2.337,2.317,23.366
514290,2.344,2.319,23.439
514305,2.369,2.325,23.690
514320,2.372,2.332,23.715
514335,2.372,2.337,23.721
514350,2.364,2.340,23.639
514365,2.347,2.342,23.474
514380,2.362,2.348,23.621
514395,2.375,2.357,23.751
514410,2.391,2.363,23.906
514425,2.398,2.369,23.976
514440,2.393,2.374,23.930
514455,2.395,2.377,23.946
514470,2.319,2.372,23.193
514485,2.228,2.357,22.283
514500,2.138,2.335,21.385
514515,2.123,2.312,21.231
514530,2.123,2.288,21.230
514545,2.118,2.263,21.176
514560,2.137,2.237,21.366
514575,2.131,2.210,21.306
514590,2.151,2.186,21.512
514605,2.156,2.162,21.559
514620,2.210,2.151,22.097
514635,2.233,2.152,22.332
514650,2.248,2.163,22.478
514665,2.258,2.176,22.577
514680,2.278,2.192,22.780
514695,2.258,2.206,22.580
514710,2.272,2.219,22.716
514725,2.313,2.238,23.128
514740,2.309,2.253,23.095
514755,2.351,2.273,23.509
514770,2.351,2.287,23.510
514785,2.347,2.298,23.469
514800,2.346,2.308,23.459
514815,2.366,2.319,23.663
514830,2.382,2.329,23.823
514845,2.378,2.342,23.785
514860,2.396,2.354,23.961
514875,2.383,2.361,23.826
514890,2.399,2.370,23.994
514905,2.386,2.374,23.862
514920,2.410,2.379,24.101
514935,2.407,2.385,24.069
514950,2.418,2.393,24.177
514965,2.401,2.396,24.007
514980,2.416,2.399,24.158
514995,2.407,2.402,24.070
515010,2.439,2.407,24.392
515025,2.416,2.410,24.160
515040,2.420,2.412,24.199
515055,2.399,2.413,23.993
515070,2.385,2.411,23.847
515085,2.390,2.409,23.901
515100,2.398,2.407,23.976
515115,2.409,2.408,24.089
515130,2.421,2.408,24.215
515145,2.410,2.409,24.101
515160,2.419,2.407,24.194
515175,2.410,2.406,24.100
515190,2.430,2.407,24.298
515205,2.368,2.404,23.676
515220,2.391,2.405,23.915
515235,2.420,2.408,24.199
515250,2.430,2.411,24.298
515265,2.410,2.411,24.097
515280,2.416,2.410,24.164
515295,2.424,2.412,24.244
515310,2.409,2.411,24.086
515325,2.430,2.413,24.299
515340,2.401,2.410,24.011
515355,2.362,2.409,23.620
515370,2.496,2.420,24.956
515385,2.548,2.433,25.476
515400,2.701,2.460,27.015
515415,2.826,2.501,28.265
515430,2.949,2.555,29.494
515445,3.062,2.618,30.616
515460,3.094,2.687,30.941
515475,3.164,2.760,31.635
515490,3.166,2.837,31.663
515505,3.158,2.916,31.575
515520,3.154,2.982,31.544
515535,3.152,3.043,31.519
515550,3.163,3.089,31.629
515565,3.172,3.123,31.722
515580,3.109,3.139,31.090
515595,3.061,3.139,30.614
515610,3.001,3.130,30.007
515625,2.944,3.108,29.443
515640,2.881,3.079,28.807
515655,2.815,3.045,28.146
515670,2.800,3.010,28.003
515685,2.784,2.973,27.839
515700,2.749,2.932,27.490
515715,2.692,2.884,26.920
515730,2.682,2.841,26.824
515745,2.619,2.797,26.193
515760,2.591,2.756,25.906
515775,2.518,2.713,25.182
515790,2.514,2.676,25.136
515805,2.514,2.646,25.136
515820,2.445,2.611,24.452
515835,2.405,2.573,24.048
515850,2.421,2.540,24.213
515865,2.408,2.512,24.081
515880,2.393,2.483,23.931
515895,2.384,2.459,23.842
515910,2.391,2.439,23.912
515925,2.410,2.429,24.100
515940,2.432,2.420,24.316
515955,2.431,2.412,24.307
515970,2.443,2.412,24.425
515985,2.431,2.414,24.307
516000,2.418,2.414,24.185
516015,2.425,2.416,24.250
516030,2.445,2.421,24.454
516045,2.422,2.425,24.220
516060,2.441,2.430,24.405
516075,2.411,2.430,24.106
516090,2.419,2.428,24.190
516105,2.430,2.428,24.301
516120,2.418,2.426,24.184
516135,2.437,2.427,24.371
516150,2.433,2.428,24.327
516165,2.425,2.428,24.246
516180,2.433,2.427,24.330
516195,2.424,2.427,24.242
516210,2.412,2.424,24.123
516225,2.424,2.426,24.237
516240,2.435,2.427,24.354
516255,2.434,2.428,24.339
516270,2.457,2.431,24.575
516285,2.447,2.432,24.471
516300,2.370,2.426,23.698
516315,2.384,2.422,23.836
516330,2.365,2.415,23.654
516345,2.457,2.419,24.567
516360,2.555,2.433,25.546
516375,2.550,2.445,25.501
516390,2.597,2.462,25.970
516405,2.614,2.480,26.139
516420,2.596,2.493,25.959
516435,2.615,2.510,26.147
516450,2.621,2.535,26.214
516465,2.602,2.557,26.019
516480,2.599,2.580,25.986
516495,2.605,2.595,26.055
516510,2.606,2.601,26.065
516525,2.593,2.605,25.931
516540,2.537,2.599,25.374
516555,2.533,2.591,25.327
516570,2.528,2.584,25.279
516585,2.516,2.574,25.156
516600,2.531,2.565,25.310
516615,2.536,2.558,25.357
516630,2.512,2.550,25.118
516645,2.497,2.539,24.970
516660,2.488,2.527,24.879
516675,2.495,2.517,24.948
516690,2.453,2.509,24.530
516705,2.436,2.499,24.360
516720,2.427,2.489,24.270
516735,2.424,2.480,24.235
516750,2.410,2.468,24.100
516765,2.384,2.452,23.836
516780,2.422,2.443,24.219
516795,2.415,2.435,24.153
516810,2.419,2.428,24.189
516825,2.407,2.420,24.067
516840,2.396,2.414,23.956
516855,2.402,2.411,24.025
516870,2.418,2.410,24.185
516885,2.387,2.406,23.869
516900,2.400,2.405,23.999
516915,2.396,2.406,23.959
516930,2.386,2.403,23.862
516945,2.417,2.403,24.167
516960,2.414,2.402,24.141
516975,2.446,2.406,24.458
516990,2.429,2.410,24.291
517005,2.392,2.409,23.921
517020,2.476,2.414,24.756
517035,2.335,2.409,23.346
517050,2.238,2.393,22.376
517065,2.043,2.358,20.434
517080,1.911,2.310,19.111
517095,1.761,2.244,17.610
517110,1.696,2.173,16.956
517125,1.658,2.094,16.585
517140,1.584,2.009,15.837
517155,1.571,1.927,15.708
517170,1.545,1.834,15.448
517185,1.563,1.757,15.626
517200,1.575,1.691,15.746
517215,1.593,1.646,15.929
517230,1.635,1.618,16.352
517245,1.696,1.611,16.955
517260,1.728,1.615,17.280
517275,1.804,1.629,18.044
517290,1.790,1.650,17.900
517305,1.821,1.675,18.208
517320,1.884,1.709,18.836
517335,1.948,1.747,19.479
517350,1.997,1.790,19.975
517365,2.057,1.836,20.575
517380,2.089,1.881,20.891
517395,2.109,1.923,21.091
517410,2.130,1.963,21.298
517425,2.169,1.999,21.694
517440,2.217,2.042,22.165
517455,2.228,2.083,22.279
517470,2.254,2.120,22.542
517485,2.282,2.153,22.822
517500,2.263,2.180,22.633
517515,2.284,2.203,22.836
517530,2.298,2.223,22.983
517545,2.326,2.245,23.264
517560,2.344,2.267,23.442
517575,2.331,2.283,23.307
517590,2.332,2.294,23.316
517605,2.324,2.304,23.237
517620,2.373,2.316,23.734
517635,2.362,2.324,23.624
517650,2.362,2.334,23.623
517665,2.406,2.346,24.061
517680,2.402,2.356,24.020
517695,2.417,2.365,24.169
517710,2.421,2.373,24.210
517725,2.393,2.379,23.930
517740,2.385,2.385,23.846
517755,2.384,2.391,23.841
517770,2.400,2.393,24.002
517785,2.408,2.398,24.081
517800,2.406,2.402,24.061
517815,2.432,2.405,24.324
517830,2.425,2.407,24.248
517845,2.409,2.406,24.094
517860,2.392,2.403,23.919
517875,2.393,2.403,23.927
517890,2.411,2.406,24.111
517905,2.390,2.407,23.896
517920,2.395,2.406,23.953
517935,2.406,2.406,24.058
517950,2.398,2.405,23.979
517965,2.389,2.401,23.890
517980,2.386,2.397,23.864
517995,2.409,2.397,24.086
518010,2.401,2.398,24.009
518025,2.449,2.403,24.493
518040,2.624,2.425,26.243
518055,2.803,2.466,28.034
518070,2.937,2.520,29.372
518085,3.073,2.587,30.731
518100,3.161,2.663,31.615
518115,3.205,2.745,32.055
518130,3.226,2.829,32.261
518145,3.256,2.914,32.555
518160,3.235,2.997,32.353
518175,3.231,3.075,32.309
518190,3.210,3.134,32.095
518205,3.194,3.173,31.943
518220,3.205,3.200,32.053
518235,3.154,3.208,31.537
518250,3.105,3.202,31.052
518265,3.073,3.189,30.734
518280,3.028,3.169,30.282
518295,2.936,3.137,29.362
518310,2.900,3.104,29.001
518325,2.877,3.068,28.766
518340,2.835,3.031,28.352
518355,2.766,2.988,27.661
518370,2.731,2.941,27.312
518385,2.691,2.894,26.906
518400,2.671,2.851,26.706
518415,2.630,2.807,26.301
518430,2.602,2.764,26.016
518445,2.624,2.733,26.236
518460,2.575,2.700,25.750
518475,2.546,2.667,25.465
518490,2.525,2.636,25.251
518505,2.507,2.610,25.068
518520,2.528,2.590,25.279
518535,2.509,2.572,25.087
518550,2.520,2.556,25.195
518565,2.491,2.543,24.911
518580,2.475,2.530,24.748
518595,2.468,2.514,24.683
518610,2.476,2.504,24.757
518625,2.479,2.498,24.789
518640,2.478,2.493,24.781
518655,2.477,2.490,24.770
518670,2.482,2.485,24.820
518685,2.439,2.478,24.391
518700,2.443,2.471,24.426
518715,2.430,2.465,24.300
518730,2.433,2.461,24.334
518745,2.434,2.457,24.344
518760,2.424,2.452,24.244
518775,2.404,2.444,24.036
518790,2.428,2.439,24.279
518805,2.427,2.434,24.267
518820,2.433,2.430,24.334
518835,2.411,2.427,24.109
518850,2.410,2.423,24.099
518865,2.396,2.420,23.960
518880,2.382,2.415,23.818
518895,2.389,2.410,23.888
518910,2.431,2.411,24.311
518925,2.400,2.411,24.002
518940,2.416,2.409,24.160
518955,2.438,2.411,24.380
518970,2.394,2.407,23.941
518985,2.292,2.395,22.917
519000,2.161,2.370,21.610
519015,1.979,2.328,19.791
519030,1.865,2.277,18.651
519045,1.712,2.209,17.119
519060,1.676,2.133,16.757
519075,1.607,2.054,16.066
519090,1.581,1.970,15.807
519105,1.578,1.884,15.784
519120,1.546,1.800,15.465
519135,1.583,1.729,15.831
519150,1.594,1.672,15.938
519165,1.624,1.637,16.244
519180,1.668,1.617,16.677
519195,1.701,1.616,17.006
519210,1.759,1.624,17.587
519225,1.803,1.644,18.028
519240,1.820,1.668,18.198
519255,1.872,1.697,18.725
519270,1.945,1.737,19.452
519285,1.995,1.778,19.950
519300,2.034,1.822,20.345
519315,2.080,1.868,20.796
519330,2.123,1.913,21.229
519345,2.121,1.955,21.214
519360,2.179,1.997,21.792
519375,2.191,2.036,21.906
519390,2.215,2.076,22.148
519405,2.275,2.116,22.750
519420,2.296,2.151,22.964
519435,2.294,2.181,22.940
519450,2.284,2.206,22.836
519465,2.322,2.230,23.225
519480,2.319,2.250,23.190
519495,2.299,2.267,22.992
519510,2.352,2.285,23.519
519525,2.364,2.302,23.639
519540,2.352,2.316,23.515
519555,2.351,2.323,23.505
519570,2.354,2.329,23.539
519585,2.349,2.335,23.493
519600,2.367,2.343,23.674
519615,2.354,2.346,23.544
519630,2.348,2.349,23.484
519645,2.380,2.357,23.796
519660,2.370,2.359,23.704
519675,2.371,2.360,23.706
519690,2.383,2.363,23.831
519705,2.367,2.364,23.671
519720,2.369,2.366,23.687
519735,2.402,2.371,24.021
519750,2.382,2.373,23.820
519765,2.399,2.377,23.993
519780,2.381,2.380,23.814
519795,2.377,2.380,23.772
519810,2.378,2.381,23.780
519825,2.422,2.386,24.218
519840,2.393,2.387,23.931
519855,2.404,2.391,24.037
519870,2.416,2.395,24.156
519885,2.392,2.394,23.921
519900,2.412,2.397,24.120
519915,2.404,2.398,24.041
519930,2.428,2.403,24.276
519945,2.434,2.408,24.336
519960,2.430,2.413,24.299
519975,2.407,2.412,24.069
519990,2.397,2.412,23.974
520005,2.385,2.410,23.855
520020,2.374,2.406,23.740
520035,2.392,2.406,23.916
520050,2.409,2.406,24.089
520065,2.402,2.406,24.018
520080,2.428,2.406,24.281
520095,2.398,2.402,23.976
520110,2.404,2.400,24.036
520125,2.433,2.402,24.330
520140,2.438,2.406,24.379
520155,2.466,2.414,24.656
520170,2.447,2.422,24.472
520185,2.443,2.427,24.432
520200,2.441,2.430,24.415
520215,2.439,2.434,24.394
520230,2.430,2.434,24.304
520245,2.441,2.438,24.409
520260,2.443,2.442,24.432
520275,2.418,2.441,24.176
520290,2.401,2.437,24.010
520305,2.399,2.430,23.993
520320,2.420,2.428,24.199
520335,2.425,2.426,24.249
520350,2.431,2.425,24.307
520365,2.437,2.424,24.371
520380,2.437,2.425,24.370
520395,2.409,2.422,24.093
520410,2.421,2.420,24.209
520425,2.372,2.415,23.725
520440,2.395,2.415,23.948
520455,2.436,2.418,24.364
520470,2.431,2.419,24.305
520485,2.417,2.419,24.167
520500,2.420,2.418,24.204
520515,2.418,2.416,24.185
520530,2.435,2.415,24.350
520545,2.420,2.417,24.195
520560,2.415,2.416,24.155
520575,2.322,2.411,23.225
520590,2.513,2.423,25.129
520605,2.535,2.433,25.346
520620,2.667,2.456,26.667
520635,2.759,2.490,27.592
520650,2.843,2.533,28.426
520665,2.916,2.582,29.159
520680,2.943,2.633,29.430
520695,2.977,2.689,29.767
520710,3.027,2.750,30.266
520725,3.060,2.824,30.596
520740,3.068,2.879,30.681
520755,3.077,2.934,30.771
520770,3.032,2.970,30.320
520785,3.013,2.995,30.130
520800,2.961,3.007,29.605
520815,2.952,3.011,29.522
520830,2.939,3.010,29.389
520845,2.851,2.998,28.509
520860,2.834,2.979,28.337
520875,2.793,2.952,27.931
520890,2.812,2.926,28.122
520905,2.774,2.896,27.745
520920,2.765,2.869,27.646
520935,2.740,2.842,27.400
520950,2.719,2.818,27.192
520965,2.700,2.793,27.001
520980,2.675,2.766,26.748
520995,2.639,2.745,26.391
521010,2.622,2.724,26.220
521025,2.604,2.705,26.044
521040,2.630,2.687,26.299
521055,2.626,2.672,26.261
521070,2.587,2.654,25.871
521085,2.595,2.640,25.946
521100,2.563,2.624,25.629
521115,2.533,2.607,25.334
521130,2.508,2.591,25.080
521145,2.492,2.576,24.916
521160,2.474,2.561,24.740
521175,2.467,2.547,24.673
521190,2.470,2.532,24.701
521205,2.469,2.516,24.689
521220,2.444,2.501,24.437
521235,2.422,2.484,24.216
521250,2.426,2.470,24.261
521265,2.429,2.460,24.288
521280,2.435,2.453,24.353
521295,2.419,2.445,24.187
521310,2.431,2.441,24.311
521325,2.414,2.436,24.144
521340,2.396,2.428,23.961
521355,2.357,2.417,23.568
521370,2.459,2.419,24.594
521385,2.539,2.431,25.392
521400,2.568,2.445,25.679
521415,2.611,2.463,26.112
521430,2.563,2.476,25.635
521445,2.592,2.493,25.921
521460,2.572,2.507,25.716
521475,2.578,2.524,25.775
521490,2.559,2.540,25.586
521505,2.564,2.560,25.636
521520,2.536,2.568,25.363
521535,2.519,2.566,25.194
521550,2.499,2.559,24.986
521565,2.499,2.548,24.987
521580,2.466,2.538,24.662
521595,2.484,2.528,24.845
521610,2.470,2.517,24.704
521625,2.464,2.506,24.636
521640,2.430,2.493,24.304
521655,2.404,2.477,24.044
521670,2.373,2.461,23.726
521685,2.415,2.450,24.150
521700,2.415,2.442,24.155
521715,2.435,2.436,24.351
521730,2.435,2.433,24.353
521745,2.447,2.429,24.474
521760,2.438,2.426,24.380
521775,2.428,2.422,24.281
521790,2.432,2.422,24.323
521805,2.398,2.422,23.977
521820,2.398,2.424,23.984
521835,2.434,2.426,24.345
521850,2.403,2.425,24.030
521865,2.431,2.425,24.312
521880,2.401,2.421,24.015
521895,2.417,2.418,24.165
521910,2.401,2.414,24.007
521925,2.384,2.410,23.836
521940,2.398,2.407,23.981
521955,2.365,2.403,23.651
521970,2.397,2.403,23.971
521985,2.376,2.397,23.765
522000,2.381,2.395,23.805
522015,2.398,2.392,23.976
522030,2.415,2.393,24.149
522045,2.390,2.390,23.901
522060,2.390,2.389,23.901
522075,2.420,2.393,24.202
522090,2.404,2.394,24.044
522105,2.395,2.397,23.955
522120,2.385,2.395,23.851
522135,2.368,2.395,23.681
522150,2.382,2.395,23.815
522165,2.410,2.396,24.101
522180,2.373,2.392,23.728
522195,2.373,2.390,23.734
522210,2.402,2.391,24.024
522225,2.386,2.388,23.858
522240,2.401,2.388,24.009
522255,2.360,2.384,23.601
522270,2.330,2.378,23.299
522285,2.314,2.373,23.139
522300,2.292,2.364,22.924
522315,2.230,2.346,22.296
522330,2.126,2.321,21.264
522345,2.159,2.300,21.594
522360,2.142,2.274,21.424
522375,2.090,2.244,20.901
522390,2.043,2.209,20.429
522405,1.977,2.170,19.767
522420,1.946,2.132,19.456
522435,1.952,2.096,19.516
522450,1.952,2.062,19.525
522465,1.940,2.033,19.399
522480,1.962,2.016,19.621
522495,1.921,1.992,19.206
522510,1.928,1.971,19.275
522525,1.988,1.961,19.878
522540,2.003,1.957,20.032
522555,2.045,1.964,20.445
522570,2.088,1.978,20.884
522585,2.165,1.999,21.651
522600,2.149,2.019,21.493
522615,2.160,2.041,21.601
522630,2.203,2.065,22.030
522645,2.253,2.098,22.529
522660,2.271,2.133,22.711
522675,2.324,2.166,23.240
522690,2.263,2.192,22.630
522705,2.251,2.213,22.509
522720,2.257,2.230,22.574
522735,2.293,2.243,22.935
522750,2.294,2.257,22.939
522765,2.312,2.272,23.121
522780,2.357,2.288,23.570
522795,2.391,2.301,23.910
522810,2.405,2.315,24.050
522825,2.416,2.324,24.158
522840,2.411,2.339,24.109
522855,2.403,2.354,24.030
522870,2.392,2.367,23.924
522885,2.405,2.379,24.046
522900,2.409,2.390,24.091
522915,2.410,2.400,24.104
522930,2.429,2.407,24.291
522945,2.432,2.411,24.321
522960,2.415,2.412,24.149
522975,2.425,2.413,24.246
522990,2.360,2.408,23.603
523005,2.241,2.392,22.410
523020,2.146,2.367,21.461
523035,2.127,2.339,21.274
523050,2.112,2.310,21.124
523065,2.090,2.278,20.898
523080,2.089,2.244,20.890
523095,2.109,2.211,21.093
523110,2.153,2.185,21.526
523125,2.178,2.161,21.775
523140,2.203,2.145,22.030
523155,2.198,2.141,21.983
523170,2.231,2.149,22.314
523185,2.248,2.161,22.480
523200,2.245,2.174,22.454
523215,2.275,2.193,22.746
523230,2.324,2.216,23.236
523245,2.354,2.241,23.544
523260,2.364,2.262,23.640
523275,2.362,2.280,23.624
523290,2.372,2.297,23.725
523305,2.371,2.315,23.709
523320,2.337,2.325,23.374
523335,2.339,2.334,23.390
523350,2.346,2.344,23.458
523365,2.356,2.353,23.564
523380,2.362,2.356,23.623
523395,2.357,2.357,23.574
523410,2.360,2.356,23.600
523425,2.382,2.358,23.819
523440,2.361,2.357,23.611
523455,2.377,2.358,23.774
523470,2.389,2.363,23.890
523485,2.385,2.368,23.849
523500,2.414,2.374,24.135
523515,2.408,2.380,24.079
523530,2.402,2.383,24.020
523545,2.368,2.385,23.684
523560,2.394,2.388,23.935
523575,2.416,2.391,24.163
523590,2.440,2.399,24.397
523605,2.423,2.404,24.234
523620,2.443,2.409,24.429
523635,2.421,2.413,24.206
523650,2.438,2.415,24.376
523665,2.400,2.414,23.997
523680,2.414,2.416,24.142
523695,2.621,2.441,26.214
523710,2.801,2.482,28.006
523725,2.970,2.537,29.700
523740,3.100,2.603,31.004
523755,3.195,2.680,31.948
523770,3.232,2.759,32.319
523785,3.238,2.841,32.382
523800,3.263,2.923,32.632
523815,3.282,3.012,32.822
523830,3.284,3.099,32.842
523845,3.245,3.161,32.454
523860,3.240,3.205,32.401
523875,3.239,3.232,32.385
523890,3.200,3.242,32.000
523905,3.132,3.236,31.315
523920,3.056,3.218,30.556
523935,3.023,3.196,30.231
523950,2.963,3.166,29.626
523965,2.899,3.128,28.990
523980,2.869,3.086,28.689
523995,2.812,3.043,28.118
524010,2.768,2.996,27.682
524025,2.721,2.944,27.209
524040,2.673,2.891,26.734
524055,2.644,2.843,26.444
524070,2.625,2.800,26.250
524085,2.612,2.759,26.121
524100,2.584,2.721,25.837
524115,2.569,2.688,25.690
524130,2.529,2.654,25.291
524145,2.512,2.624,25.122
524160,2.493,2.596,24.931
524175,2.472,2.571,24.718
524190,2.444,2.548,24.436
524205,2.461,2.530,24.609
524220,2.455,2.513,24.554
524235,2.454,2.497,24.545
524250,2.451,2.484,24.514
524265,2.435,2.471,24.351
524280,2.440,2.462,24.396
524295,2.438,2.454,24.375
524310,2.403,2.445,24.030
524325,2.425,2.441,24.248
524340,2.418,2.438,24.180
524355,2.431,2.435,24.306
524370,2.465,2.436,24.649
524385,2.434,2.434,24.339
524400,2.427,2.431,24.266
524415,2.401,2.428,24.015
524430,2.411,2.425,24.107
524445,2.411,2.423,24.114
524460,2.394,2.422,23.937
524475,2.405,2.420,24.053
524490,2.402,2.418,24.025
524505,2.414,2.416,24.141
524520,2.368,2.407,23.680
524535,2.349,2.398,23.488
524550,2.399,2.395,23.986
524565,2.487,2.404,24.866
524580,2.285,2.391,22.849
524595,2.096,2.360,20.960
524610,1.909,2.311,19.094
524625,1.765,2.247,17.653
524640,1.646,2.172,16.459
524655,1.557,2.086,15.573
524670,1.511,2.000,15.111
524685,1.499,1.915,14.994
524700,1.474,1.823,14.742
524715,1.501,1.724,15.011
524730,1.541,1.650,15.414
524745,1.589,1.599,15.885
524760,1.652,1.574,16.520
524775,1.678,1.565,16.776
524790,1.712,1.571,17.121
524805,1.752,1.591,17.524
524820,1.833,1.623,18.331
524835,1.905,1.664,19.049
524850,1.939,1.710,19.392
524865,1.972,1.757,19.725
524880,2.045,1.808,20.454
524895,2.063,1.855,20.634
524910,2.092,1.899,20.919
524925,2.127,1.944,21.267
524940,2.148,1.988,21.479
524955,2.166,2.029,21.659
524970,2.186,2.064,21.864
524985,2.206,2.095,22.060
525000,2.254,2.126,22.540
525015,2.250,2.154,22.504
525030,2.279,2.177,22.785
525045,2.284,2.199,22.841
525060,2.292,2.219,22.922
525075,2.320,2.239,23.201
525090,2.311,2.255,23.106
525105,2.332,2.271,23.315
525120,2.355,2.288,23.549
525135,2.348,2.302,23.484
525150,2.348,2.312,23.475
525165,2.400,2.327,23.996
525180,2.394,2.338,23.944
525195,2.378,2.348,23.784
525210,2.370,2.356,23.698
525225,2.387,2.362,23.874
525240,2.372,2.368,23.715
525255,2.390,2.374,23.901
525270,2.380,2.377,23.796
525285,2.364,2.378,23.638
525300,2.393,2.383,23.931
525315,2.420,2.385,24.201
525330,2.431,2.388,24.309
525345,2.426,2.393,24.261
525360,2.449,2.401,24.491
525375,2.319,2.394,23.185
525390,2.495,2.407,24.949
525405,2.706,2.438,27.059
525420,2.904,2.491,29.037
525435,3.058,2.560,30.581
525450,3.161,2.637,31.614
525465,3.225,2.717,32.250
525480,3.244,2.799,32.438
525495,3.251,2.881,32.513
525510,3.241,2.960,32.408
525525,3.240,3.053,32.405
525540,3.232,3.126,32.319
525555,3.220,3.178,32.196
525570,3.186,3.206,31.862
525585,3.176,3.218,31.757
525600,3.106,3.212,31.061
525615,3.024,3.192,30.238
525630,3.007,3.168,30.070
525645,2.934,3.137,29.340
525660,2.896,3.102,28.956
525675,2.864,3.064,28.640
525690,2.810,3.022,28.099
525705,2.721,2.972,27.213
525720,2.653,2.919,26.534
525735,2.627,2.864,26.270
525750,2.615,2.815,26.149
525765,2.628,2.775,26.279
525780,2.644,2.739,26.440
525795,2.615,2.707,26.151
525810,2.620,2.680,26.204
525825,2.580,2.651,25.800
525840,2.524,2.623,25.244
525855,2.503,2.601,25.031
525870,2.462,2.582,24.618
525885,2.422,2.561,24.216
525900,2.464,2.546,24.644
525915,2.460,2.529,24.600
525930,2.486,2.514,24.862
525945,2.474,2.500,24.739
525960,2.448,2.482,24.481
525975,2.428,2.467,24.283
525990,2.435,2.458,24.353
526005,2.409,2.449,24.089
526020,2.421,2.445,24.207
526035,2.425,2.445,24.255
526050,2.402,2.439,24.025
526065,2.415,2.434,24.154
526080,2.411,2.427,24.111
526095,2.376,2.417,23.756
526110,2.408,2.413,24.084
526125,2.388,2.409,23.885
526140,2.390,2.405,23.899
526155,2.378,2.402,23.784
526170,2.378,2.397,23.776
526185,2.419,2.397,24.189
526200,2.442,2.401,24.420
526215,2.404,2.399,24.040
526230,2.402,2.399,24.021
526245,2.405,2.401,24.053
526260,2.398,2.400,23.979
526275,2.368,2.398,23.677
526290,2.384,2.398,23.844
526305,2.433,2.403,24.333
526320,2.324,2.398,23.237
526335,2.115,2.368,21.147
526350,1.877,2.311,18.765
526365,1.717,2.242,17.173
526380,1.639,2.166,16.394
526395,1.537,2.079,15.369
526410,1.492,1.989,14.919
526425,1.505,1.902,15.046
526440,1.517,1.816,15.170
526455,1.518,1.724,15.180
526470,1.555,1.647,15.546
526485,1.596,1.595,15.957
526500,1.665,1.574,16.649
526515,1.697,1.572,16.966
526530,1.741,1.582,17.413
526545,1.787,1.607,17.869
526560,1.806,1.639,18.059
526575,1.866,1.675,18.660
526590,1.918,1.715,19.185
526605,1.985,1.762,19.846
526620,2.015,1.808,20.149
526635,2.046,1.853,20.457
526650,2.122,1.898,21.219
526665,2.141,1.943,21.407
526680,2.183,1.987,21.826
526695,2.212,2.029,22.116
526710,2.231,2.072,22.315
526725,2.291,2.114,22.913
526740,2.299,2.152,22.992
526755,2.333,2.187,23.333
526770,2.318,2.218,23.179
526785,2.339,2.247,23.395
526800,2.349,2.270,23.485
526815,2.344,2.290,23.439
526830,2.374,2.309,23.741
526845,2.385,2.326,23.845
526860,2.388,2.342,23.879
526875,2.367,2.350,23.666
526890,2.368,2.356,23.682
526905,2.371,2.360,23.709
526920,2.389,2.367,23.895
526935,2.398,2.373,23.979
526950,2.425,2.381,24.250
526965,2.437,2.390,24.369
526980,2.403,2.393,24.029
526995,2.355,2.390,23.551
527010,2.322,2.384,23.222
527025,2.335,2.380,23.347
527040,2.352,2.379,23.520
527055,2.344,2.376,23.436
527070,2.369,2.374,23.695
527085,2.361,2.370,23.610
527100,2.385,2.366,23.846
527115,2.377,2.360,23.770
527130,2.399,2.360,23.989
527145,2.397,2.364,23.966
527160,2.412,2.373,24.119
527175,2.391,2.379,23.915
527190,2.411,2.385,24.107
527205,2.399,2.390,23.994
527220,2.402,2.393,24.016
527235,2.424,2.400,24.240
527250,2.426,2.404,24.257
527265,2.430,2.409,24.301
527280,2.427,2.412,24.269
527295,2.432,2.415,24.324
527310,2.445,2.419,24.451
527325,2.423,2.422,24.228
527340,2.417,2.423,24.170
527355,2.431,2.426,24.307
527370,2.399,2.425,23.986
527385,2.372,2.420,23.722
527400,2.356,2.413,23.562
527415,2.384,2.409,23.839
527430,2.434,2.409,24.341
527445,2.439,2.410,24.388
527460,2.409,2.406,24.090
527475,2.419,2.406,24.190
527490,2.425,2.407,24.253
527505,2.424,2.406,24.235
527520,2.412,2.407,24.120
527535,2.412,2.411,24.116
527550,2.434,2.419,24.345
527565,2.403,2.421,24.031
527580,2.426,2.420,24.257
527595,2.412,2.418,24.124
527610,2.368,2.414,23.685
527625,2.373,2.409,23.729
527640,2.402,2.407,24.018
527655,2.431,2.407,24.309
527670,2.451,2.411,24.515
527685,2.430,2.413,24.304
527700,2.409,2.411,24.088
527715,2.415,2.412,24.154
527730,2.406,2.410,24.056
527745,2.417,2.410,24.166
527760,2.323,2.406,23.228
527775,2.548,2.423,25.479
527790,2.711,2.454,27.115
527805,2.837,2.495,28.371
527820,2.886,2.538,28.865
527835,2.951,2.590,29.513
527850,3.037,2.653,30.368
527865,3.063,2.718,30.629
527880,3.088,2.786,30.876
527895,3.113,2.856,31.130
527910,3.079,2.931,30.789
527925,3.049,2.981,30.485
527940,3.024,3.013,30.244
527955,2.991,3.028,29.915
527970,2.945,3.034,29.455
527985,2.905,3.029,29.050
528000,2.864,3.012,28.639
528015,2.850,2.991,28.503
528030,2.839,2.966,28.395
528045,2.804,2.935,28.044
528060,2.768,2.904,27.682
528075,2.675,2.867,26.751
528090,2.654,2.830,26.536
528105,2.664,2.797,26.635
528120,2.628,2.765,26.278
528135,2.602,2.735,26.025
528150,2.556,2.704,25.556
528165,2.589,2.678,25.887
528180,2.637,2.658,26.369
528195,2.664,2.644,26.642
528210,2.673,2.634,26.734
528225,2.646,2.631,26.458
528240,2.671,2.633,26.715
528255,2.632,2.630,26.325
528270,2.617,2.629,26.166
528285,2.588,2.627,25.879
528300,2.606,2.632,26.065
528315,2.635,2.637,26.354
528330,2.618,2.635,26.185
528345,2.599,2.629,25.990
528360,2.545,2.616,25.445
528375,2.571,2.608,25.714
528390,2.545,2.596,25.450
528405,2.582,2.591,25.820
528420,2.573,2.586,25.735
528435,2.546,2.582,25.459
528450,2.558,2.577,25.583
528465,2.550,2.569,25.501
528480,2.558,2.563,25.583
528495,2.522,2.555,25.215
528510,2.540,2.555,25.398
528525,2.551,2.553,25.507
528540,2.517,2.550,25.170
528555,2.518,2.543,25.184
528570,2.516,2.538,25.164
528585,2.501,2.533,25.014
528600,2.473,2.525,24.727
528615,2.474,2.517,24.743
528630,2.481,2.509,24.812
528645,2.468,2.504,24.684
528660,2.450,2.495,24.504
528675,2.423,2.482,24.228
528690,2.451,2.476,24.506
528705,2.446,2.468,24.456
528720,2.445,2.461,24.452
528735,2.429,2.454,24.286
528750,2.447,2.451,24.470
528765,2.452,2.449,24.522
528780,2.428,2.444,24.276
528795,2.436,2.441,24.360
528810,2.438,2.439,24.385
528825,2.457,2.443,24.567
528840,2.438,2.442,24.381
528855,2.420,2.439,24.195
528870,2.415,2.436,24.150
528885,2.397,2.433,23.969
528900,2.429,2.431,24.290
528915,2.419,2.428,24.187
528930,2.425,2.427,24.251
528945,2.414,2.425,24.139
528960,2.405,2.422,24.051
528975,2.408,2.417,24.084
528990,2.421,2.415,24.205
529005,2.442,2.417,24.417
529020,2.435,2.419,24.353
529035,2.460,2.426,24.596
529050,2.445,2.427,24.450
529065,2.392,2.425,23.925
529080,2.395,2.422,23.955
529095,2.404,2.421,24.041
529110,2.405,2.421,24.045
529125,2.425,2.422,24.251
529140,2.415,2.422,24.146
529155,2.421,2.420,24.214
529170,2.402,2.416,24.020
529185,2.401,2.411,24.010
529200,2.401,2.406,24.012
529215,2.429,2.410,24.288
529230,2.430,2.413,24.302
529245,2.391,2.412,23.906
529260,2.404,2.412,24.035
529275,2.391,2.408,23.907
529290,2.463,2.413,24.632
529305,2.316,2.403,23.160
529320,2.363,2.399,23.626
529335,2.270,2.386,22.698
529350,2.256,2.371,22.555
529365,2.123,2.341,21.230
529380,2.136,2.311,21.365
529395,2.067,2.279,20.670
529410,2.031,2.242,20.310
529425,1.972,2.200,19.725
529440,1.912,2.145,19.116
529455,1.892,2.102,18.921
529470,1.892,2.055,18.922
529485,1.898,2.018,18.978
529500,1.901,1.983,19.015
529515,1.891,1.959,18.913
529530,1.872,1.933,18.724
529545,1.860,1.912,18.597
529560,1.822,1.891,18.219
529575,1.836,1.878,18.355
529590,1.852,1.872,18.521
529605,1.898,1.872,18.983
529620,1.914,1.874,19.140
529635,1.932,1.878,19.323
529650,1.944,1.882,19.439
529665,1.960,1.889,19.601
529680,1.981,1.900,19.806
529695,2.013,1.915,20.131
529710,2.068,1.940,20.684
529725,2.131,1.969,21.309
529740,2.099,1.994,20.991
529755,2.108,2.015,21.077
529770,2.128,2.036,21.282
529785,2.165,2.060,21.653
529800,2.168,2.082,21.685
529815,2.201,2.106,22.014
529830,2.195,2.128,21.949
529845,2.210,2.147,22.099
529860,2.205,2.161,22.054
529875,2.240,2.172,22.405
529890,2.265,2.189,22.653
529905,2.284,2.206,22.840
529920,2.283,2.222,22.825
529935,2.310,2.236,23.097
529950,2.316,2.251,23.165
529965,2.342,2.265,23.425
529980,2.363,2.282,23.632
529995,2.392,2.300,23.923
530010,2.406,2.320,24.058
530025,2.366,2.333,23.658
530040,2.354,2.342,23.544
530055,2.296,2.343,22.960
530070,2.274,2.342,22.741
530085,2.287,2.340,22.868
530100,2.286,2.337,22.855
530115,2.306,2.333,23.061
530130,2.292,2.326,22.915
530145,2.306,2.317,23.065
530160,2.316,2.308,23.155
530175,2.349,2.306,23.485
530190,2.315,2.303,23.146
530205,2.324,2.305,23.239
530220,2.338,2.312,23.377
530235,2.358,2.319,23.579
530250,2.346,2.325,23.459
530265,2.353,2.330,23.534
530280,2.358,2.336,23.580
530295,2.405,2.346,24.051
530310,2.376,2.352,23.757
530325,2.362,2.353,23.623
530340,2.376,2.360,23.764
530355,2.354,2.363,23.542
530370,2.380,2.367,23.801
530385,2.381,2.369,23.807
530400,2.386,2.373,23.856
530415,2.419,2.380,24.194
530430,2.427,2.387,24.267
530445,2.408,2.387,24.079
530460,2.386,2.388,23.865
530475,2.400,2.392,24.004
530490,2.408,2.395,24.081
530505,2.374,2.397,23.740
530520,2.393,2.398,23.930
530535,2.414,2.402,24.137
530550,2.421,2.405,24.206
530565,2.433,2.406,24.330
530580,2.437,2.407,24.372
530595,2.451,2.412,24.506
530610,2.437,2.417,24.366
530625,2.440,2.421,24.400
530640,2.395,2.419,23.955
530655,2.411,2.423,24.114
530670,2.428,2.427,24.278
530685,2.422,2.427,24.221
530700,2.418,2.427,24.181
530715,2.446,2.429,24.460
530730,2.451,2.430,24.515
530745,2.444,2.429,24.444
530760,2.433,2.429,24.329
530775,2.463,2.431,24.626
530790,2.444,2.436,24.440
530805,2.463,2.441,24.625
530820,2.453,2.444,24.529
530835,2.463,2.448,24.626
530850,2.460,2.452,24.600
530865,2.452,2.453,24.517
530880,2.437,2.451,24.366
530895,2.539,2.460,25.390
530910,2.597,2.477,25.966
530925,2.711,2.502,27.114
530940,2.848,2.542,28.481
530955,2.975,2.593,29.751
530970,3.104,2.659,31.042
530985,3.177,2.730,31.771
531000,3.236,2.808,32.360
531015,3.248,2.887,32.481
531030,3.282,2.972,32.818
531045,3.291,3.047,32.908
531060,3.323,3.120,33.231
531075,3.288,3.177,32.880
531090,3.273,3.220,32.725
531105,3.257,3.248,32.568
531120,3.200,3.257,32.000
531135,3.135,3.253,31.355
531150,3.093,3.239,30.928
531165,3.062,3.220,30.618
531180,2.997,3.192,29.974
531195,2.940,3.157,29.397
531210,2.910,3.115,29.100
531225,2.867,3.073,28.667
531240,2.833,3.029,28.328
531255,2.772,2.981,27.721
531270,2.740,2.935,27.405
531285,2.716,2.893,27.157
531300,2.693,2.853,26.925
531315,2.639,2.811,26.390
531330,2.612,2.772,26.125
531345,2.631,2.741,26.306
531360,2.598,2.710,25.976
531375,2.576,2.681,25.758
531390,2.574,2.655,25.741
531405,2.547,2.633,25.468
531420,2.534,2.612,25.339
531435,2.496,2.590,24.958
531450,2.483,2.569,24.832
531465,2.469,2.552,24.686
531480,2.469,2.538,24.691
531495,2.463,2.521,24.625
531510,2.458,2.507,24.583
531525,2.477,2.497,24.773
531540,2.447,2.484,24.471
531555,2.423,2.472,24.230
531570,2.403,2.459,24.030
531585,2.421,2.451,24.211
531600,2.425,2.445,24.249
531615,2.414,2.440,24.142
531630,2.423,2.435,24.230
531645,2.418,2.431,24.175
531660,2.392,2.424,23.916
531675,2.389,2.415,23.894
531690,2.408,2.412,24.077
531705,2.421,2.411,24.211
531720,2.228,2.394,22.284
531735,2.053,2.357,20.535
531750,1.889,2.304,18.892
531765,1.752,2.237,17.521
531780,1.648,2.160,16.484
531795,1.610,2.079,16.096
531810,1.581,1.998,15.811
531825,1.579,1.917,15.790
531840,1.548,1.831,15.485
531855,1.566,1.746,15.656
531870,1.586,1.681,15.864
531885,1.607,1.637,16.065
531900,1.636,1.611,16.364
531915,1.674,1.604,16.740
531930,1.713,1.610,17.129
531945,1.772,1.626,17.720
531960,1.833,1.651,18.333
531975,1.884,1.682,18.836
531990,1.921,1.719,19.205
532005,1.950,1.758,19.497
532020,2.007,1.800,20.066
532035,2.028,1.842,20.278
532050,2.064,1.884,20.644
532065,2.109,1.928,21.095
532080,2.151,1.972,21.514
532095,2.194,2.014,21.935
532110,2.202,2.051,22.020
532125,2.216,2.084,22.161
532140,2.259,2.118,22.585
532155,2.272,2.150,22.722
532170,2.295,2.179,22.946
532185,2.276,2.204,22.757
532200,2.285,2.226,22.852
532215,2.287,2.244,22.866
532230,2.323,2.261,23.235
532245,2.334,2.275,23.336
532260,2.337,2.288,23.369
532275,2.335,2.300,23.350
532290,2.332,2.307,23.315
532305,2.352,2.315,23.523
532320,2.372,2.323,23.724
532335,2.371,2.333,23.705
532350,2.361,2.340,23.611
532365,2.389,2.351,23.886
532380,2.369,2.355,23.695
532395,2.410,2.363,24.099
532410,2.422,2.371,24.225
532425,2.393,2.377,23.930
532440,2.369,2.381,23.691
532455,2.482,2.394,24.823
532470,2.547,2.411,25.468
532485,2.732,2.447,27.321
532500,2.915,2.503,29.151
532515,3.043,2.568,30.426
532530,3.135,2.645,31.354
532545,3.217,2.726,32.174
532560,3.223,2.806,32.228
532575,3.221,2.888,32.215
532590,3.272,2.979,32.720
532605,3.278,3.058,32.778
532620,3.240,3.128,32.400
532635,3.203,3.175,32.031
532650,3.172,3.200,31.720
532665,3.097,3.206,30.968
532680,3.048,3.197,30.484
532695,3.014,3.177,30.136
532710,2.985,3.153,29.846
532725,2.922,3.123,29.218
532740,2.856,3.081,28.561
532755,2.808,3.034,28.084
532770,2.730,2.983,27.299
532785,2.691,2.932,26.913
532800,2.625,2.878,26.253
532815,2.647,2.833,26.469
532830,2.624,2.790,26.240
532845,2.605,2.749,26.050
532860,2.613,2.712,26.130
532875,2.598,2.680,25.979
532890,2.581,2.652,25.809
532905,2.525,2.624,25.251
532920,2.489,2.600,24.885
532935,2.516,2.582,25.155
532950,2.523,2.572,25.230
532965,2.526,2.560,25.256
532980,2.481,2.546,24.812
532995,2.499,2.535,24.994
533010,2.490,2.523,24.895
533025,2.490,2.512,24.897
533040,2.481,2.502,24.809
533055,2.454,2.495,24.536
533070,2.426,2.488,24.261
533085,2.455,2.482,24.549
533100,2.451,2.475,24.505
533115,2.442,2.467,24.417
533130,2.430,2.462,24.296
533145,2.441,2.456,24.411
533160,2.421,2.449,24.209
533175,2.451,2.445,24.510
533190,2.449,2.442,24.487
533205,2.422,2.439,24.225
533220,2.427,2.439,24.272
533235,2.431,2.436,24.311
533250,2.412,2.433,24.121
533265,2.427,2.431,24.269
533280,2.417,2.430,24.167
533295,2.411,2.427,24.113
533310,2.397,2.424,23.972
533325,2.394,2.419,23.937
533340,2.402,2.414,24.025
533355,2.441,2.416,24.405
533370,2.432,2.416,24.318
533385,2.234,2.397,22.338
533400,2.033,2.359,20.327
533415,1.871,2.303,18.710
533430,1.746,2.236,17.458
533445,1.668,2.162,16.684
533460,1.652,2.087,16.519
533475,1.636,2.011,16.360
533490,1.627,1.934,16.269
533505,1.650,1.855,16.504
533520,1.792,1.791,17.924
533535,1.896,1.757,18.964
533550,1.977,1.752,19.765
533565,2.025,1.767,20.254
533580,1.940,1.786,19.399
533595,1.893,1.809,18.931
533610,1.838,1.827,18.379
533625,1.814,1.845,18.136
533640,1.812,1.864,18.120
533655,1.813,1.880,18.128
533670,1.855,1.886,18.545
533685,1.862,1.883,18.622
533700,1.927,1.878,19.274
533715,1.939,1.869,19.388
533730,2.017,1.877,20.173
533745,2.022,1.890,20.215
533760,2.040,1.910,20.400
533775,2.084,1.937,20.837
533790,2.102,1.966,21.019
533805,2.148,2.000,21.479
533820,2.166,2.031,21.663
533835,2.213,2.066,22.127
533850,2.267,2.100,22.671
533865,2.314,2.137,23.141
533880,2.316,2.167,23.157
533895,2.342,2.199,23.420
533910,2.296,2.225,22.965
533925,2.330,2.249,23.298
533940,2.359,2.275,23.586
533955,2.388,2.299,23.883
533970,2.361,2.319,23.609
533985,2.370,2.334,23.698
534000,2.412,2.349,24.118
534015,2.395,2.357,23.955
534030,2.411,2.366,24.105
534045,2.402,2.372,24.020
534060,2.430,2.386,24.300
534075,2.391,2.392,23.909
534090,2.399,2.396,23.993
534105,2.402,2.397,24.020
534120,2.396,2.401,23.959
534135,2.341,2.398,23.406
534150,2.514,2.408,25.144
534165,2.656,2.434,26.558
534180,2.854,2.478,28.539
534195,2.960,2.534,29.595
534210,3.062,2.597,30.621
534225,3.188,2.677,31.880
534240,3.259,2.763,32.588
534255,3.288,2.852,32.879
534270,3.313,2.943,33.126
534285,3.270,3.036,32.698
534300,3.230,3.108,32.298
534315,3.202,3.162,32.022
534330,3.151,3.192,31.507
534345,3.116,3.208,31.164
534360,3.095,3.211,30.945
534375,3.078,3.200,30.778
534390,3.014,3.176,30.139
534405,2.960,3.143,29.599
534420,2.933,3.105,29.331
534435,2.873,3.065,28.728
534450,2.841,3.026,28.414
534465,2.801,2.986,28.011
534480,2.749,2.946,27.490
534495,2.720,2.906,27.197
534510,2.682,2.865,26.819
534525,2.651,2.822,26.509
534540,2.622,2.783,26.220
534555,2.587,2.746,25.869
534570,2.556,2.708,25.560
534585,2.547,2.676,25.472
534600,2.545,2.646,25.450
534615,2.548,2.621,25.480
534630,2.503,2.596,25.026
534645,2.498,2.574,24.984
534660,2.462,2.552,24.621
534675,2.437,2.531,24.374
534690,2.444,2.513,24.437
534705,2.449,2.499,24.486
534720,2.444,2.488,24.443
534735,2.426,2.476,24.257
534750,2.434,2.464,24.341
534765,2.418,2.452,24.183
534780,2.418,2.443,24.180
534795,2.429,2.436,24.294
534810,2.412,2.431,24.120
534825,2.417,2.429,24.174
534840,2.431,2.428,24.309
534855,2.429,2.426,24.291
534870,2.384,2.420,23.839
534885,2.368,2.414,23.676
534900,2.413,2.412,24.130
534915,2.413,2.411,24.129
534930,2.398,2.409,23.984
534945,2.409,2.407,24.093
534960,2.419,2.408,24.193
534975,2.412,2.408,24.116
534990,2.422,2.407,24.220
535005,2.404,2.404,24.041
535020,2.410,2.407,24.099
535035,2.462,2.416,24.619
535050,2.365,2.411,23.654
535065,2.160,2.386,21.599
535080,1.952,2.342,19.521
535095,1.774,2.278,17.737
535110,1.612,2.197,16.118
535125,1.563,2.112,15.632
535140,1.481,2.018,14.811
535155,1.486,1.926,14.858
535170,1.483,1.834,14.831
535185,1.547,1.742,15.474
535200,1.538,1.660,15.382
535215,1.610,1.605,16.095
535230,1.656,1.575,16.564
535245,1.682,1.566,16.816
535260,1.712,1.576,17.119
535275,1.800,1.599,17.996
535290,1.850,1.636,18.499
535305,1.906,1.678,19.064
535320,1.984,1.728,19.836
535335,2.036,1.777,20.356
535350,2.076,1.831,20.755
535365,2.118,1.882,21.177
535380,2.174,1.934,21.744
535395,2.179,1.983,21.789
535410,2.210,2.033,22.100
535425,2.257,2.079,22.570
535440,2.308,2.125,23.084
535455,2.332,2.167,23.317
535470,2.325,2.201,23.250
535485,2.326,2.230,23.258
535500,2.326,2.255,23.256
535515,2.327,2.276,23.270
535530,2.327,2.292,23.266
535545,2.353,2.309,23.528
535560,2.387,2.327,23.870
535575,2.403,2.341,24.034
535590,2.401,2.351,24.009
535605,2.392,2.357,23.925
535620,2.366,2.361,23.665
535635,2.385,2.367,23.854
535650,2.412,2.375,24.118
535665,2.419,2.385,24.186
535680,2.423,2.394,24.231
535695,2.404,2.399,24.040
535710,2.405,2.401,24.048
535725,2.384,2.399,23.837
535740,2.384,2.397,23.844
535755,2.398,2.398,23.977
535770,2.434,2.405,24.336
535785,2.402,2.406,24.016
535800,2.421,2.407,24.205
535815,2.413,2.407,24.134
535830,2.384,2.403,23.839
535845,2.364,2.399,23.641
535860,2.460,2.404,24.597
535875,2.694,2.435,26.941
535890,2.908,2.488,29.075
535905,3.048,2.553,30.478
535920,3.128,2.622,31.285
535935,3.174,2.699,31.744
535950,3.217,2.779,32.171
535965,3.264,2.864,32.640
535980,3.297,2.955,32.974
535995,3.294,3.048,32.936
536010,3.260,3.128,32.604
536025,3.225,3.182,32.254
536040,3.140,3.205,31.403
536055,3.110,3.211,31.096
536070,3.088,3.207,30.879
536085,3.043,3.194,30.431
536100,2.997,3.172,29.970
536115,2.922,3.138,29.220
536130,2.882,3.096,28.819
536145,2.841,3.051,28.411
536160,2.797,3.005,27.975
536175,2.752,2.957,27.522
536190,2.690,2.912,26.899
536205,2.643,2.866,26.431
536220,2.602,2.817,26.021
536235,2.559,2.769,25.589
536250,2.521,2.721,25.214
536265,2.520,2.681,25.205
536280,2.508,2.643,25.080
536295,2.497,2.609,24.975
536310,2.469,2.576,24.692
536325,2.470,2.548,24.700
536340,2.453,2.524,24.531
536355,2.466,2.507,24.661
536370,2.442,2.491,24.421
536385,2.451,2.480,24.511
536400,2.448,2.473,24.481
536415,2.436,2.464,24.361
536430,2.431,2.456,24.311
536445,2.421,2.449,24.206
536460,2.395,2.441,23.949
536475,2.428,2.437,24.283
536490,2.454,2.437,24.545
536505,2.444,2.435,24.445
536520,2.464,2.437,24.645
536535,2.436,2.436,24.360
536550,2.422,2.433,24.225
536565,2.432,2.433,24.323
536580,2.413,2.431,24.130
536595,2.418,2.431,24.175
536610,2.395,2.431,23.948
536625,2.401,2.428,24.005
536640,2.405,2.423,24.053
536655,2.412,2.420,24.119
536670,2.385,2.412,23.854
536685,2.400,2.408,23.996
536700,2.417,2.408,24.174
536715,2.431,2.408,24.312
536730,2.441,2.410,24.407
536745,2.436,2.412,24.361
536760,2.440,2.417,24.396
536775,2.458,2.423,24.580
536790,2.355,2.418,23.552
536805,2.168,2.393,21.675
536820,1.972,2.352,19.715
536835,1.774,2.289,17.743
536850,1.658,2.213,16.580
536865,1.583,2.128,15.829
536880,1.549,2.039,15.495
536895,1.554,1.951,15.545
536910,1.553,1.862,15.532
536925,1.537,1.770,15.369
536940,1.545,1.689,15.454
536955,1.616,1.634,16.163
536970,1.669,1.604,16.695
536985,1.677,1.594,16.767
537000,1.751,1.604,17.513
537015,1.846,1.630,18.458
537030,1.914,1.666,19.141
537045,1.943,1.705,19.430
537060,1.998,1.750,19.980
537075,2.058,1.802,20.579
537090,2.098,1.857,20.984
537105,2.145,1.910,21.448
537120,2.172,1.960,21.716
537135,2.197,2.012,21.967
537150,2.246,2.062,22.461
537165,2.269,2.104,22.686
537180,2.296,2.142,22.964
537195,2.307,2.179,23.073
537210,2.316,2.210,23.164
537225,2.344,2.239,23.441
537240,2.389,2.268,23.888
537255,2.377,2.291,23.770
537270,2.395,2.314,23.950
537285,2.406,2.335,24.059
537300,2.414,2.351,24.141
537315,2.392,2.364,23.923
537330,2.391,2.373,23.907
537345,2.384,2.381,23.839
537360,2.393,2.388,23.929
537375,2.388,2.393,23.879
537390,2.406,2.395,24.058
537405,2.410,2.398,24.102
537420,2.413,2.400,24.129
537435,2.408,2.400,24.077
537450,2.431,2.402,24.314
537465,2.455,2.408,24.555
537480,2.438,2.413,24.381
537495,2.443,2.419,24.434
537510,2.428,2.422,24.283
537525,2.457,2.429,24.566
537540,2.430,2.431,24.304
537555,2.424,2.433,24.245
537570,2.416,2.433,24.161
537585,2.410,2.433,24.099
537600,2.404,2.431,24.041
537615,2.369,2.422,23.691
537630,2.402,2.418,24.018
537645,2.418,2.416,24.181
537660,2.439,2.417,24.394
537675,2.344,2.406,23.439
537690,2.531,2.416,25.311
537705,2.655,2.439,26.548
537720,2.850,2.482,28.498
537735,2.992,2.540,29.923
537750,3.114,2.611,31.144
537765,3.217,2.696,32.169
537780,3.272,2.783,32.716
537795,3.306,2.872,33.055
537810,3.287,2.957,32.874
537825,3.292,3.052,32.920
537840,3.253,3.124,32.531
537855,3.241,3.182,32.409
537870,3.185,3.216,31.847
537885,3.141,3.231,31.415
537900,3.070,3.226,30.698
537915,3.009,3.206,30.091
537930,2.969,3.175,29.689
537945,2.917,3.136,29.171
537960,2.891,3.097,28.907
537975,2.845,3.052,28.454
537990,2.773,3.004,27.731
538005,2.720,2.952,27.197
538020,2.734,2.907,27.338
538035,2.707,2.863,27.066
538050,2.640,2.820,26.404
538065,2.605,2.780,26.055
538080,2.577,2.741,25.769
538095,2.563,2.706,25.635
538110,2.554,2.672,25.538
538125,2.521,2.639,25.211
538140,2.510,2.613,25.101
538155,2.496,2.591,24.960
538170,2.482,2.566,24.820
538185,2.474,2.542,24.745
538200,2.463,2.525,24.625
538215,2.483,2.512,24.831
538230,2.441,2.499,24.405
538245,2.459,2.488,24.586
538260,2.419,2.475,24.194
538275,2.401,2.463,24.009
538290,2.401,2.452,24.005
538305,2.410,2.443,24.101
538320,2.452,2.440,24.522
538335,2.438,2.437,24.384
538350,2.442,2.435,24.423
538365,2.425,2.429,24.249
538380,2.389,2.424,23.894
538395,2.398,2.418,23.977
538410,2.392,2.415,23.925
538425,2.400,2.415,23.997
538440,2.390,2.414,23.900
538455,2.412,2.414,24.125
538470,2.467,2.415,24.673
538485,2.453,2.417,24.530
538500,2.403,2.413,24.026
538515,2.410,2.411,24.097
538530,2.392,2.412,23.918
538545,2.414,2.413,24.135
538560,2.439,2.418,24.388
538575,2.451,2.423,24.514
538590,2.419,2.426,24.194
538605,2.419,2.427,24.186
538620,2.436,2.423,24.361
538635,2.449,2.423,24.487
538650,2.449,2.428,24.490
538665,2.450,2.432,24.502
538680,2.436,2.436,24.358
538695,2.522,2.447,25.221
538710,2.306,2.434,23.061
538725,2.117,2.400,21.167
538740,1.921,2.350,19.206
538755,1.784,2.287,17.839
538770,1.660,2.209,16.595
538785,1.588,2.123,15.883
538800,1.559,2.034,15.586
538815,1.520,1.941,15.205
538830,1.535,1.851,15.351
538845,1.574,1.756,15.741
538860,1.582,1.684,15.820
538875,1.610,1.633,16.099
538890,1.650,1.606,16.502
538905,1.660,1.594,16.599
538920,1.718,1.600,17.183
538935,1.745,1.615,17.449
538950,1.815,1.641,18.149
538965,1.868,1.676,18.677
538980,1.950,1.717,19.496
538995,1.997,1.759,19.974
539010,2.029,1.804,20.294
539025,2.080,1.851,20.804
539040,2.111,1.897,21.112
539055,2.086,1.940,20.863
539070,2.133,1.981,21.330
539085,2.192,2.026,21.924
539100,2.233,2.068,22.334
539115,2.246,2.106,22.455
539130,2.295,2.140,22.948
539145,2.319,2.173,23.195
539160,2.340,2.204,23.399
539175,2.343,2.230,23.430
539190,2.368,2.256,23.682
539205,2.360,2.283,23.601
539220,2.388,2.309,23.884
539235,2.369,2.326,23.694
539250,2.380,2.341,23.800
539265,2.375,2.354,23.749
539280,2.368,2.361,23.676
539295,2.397,2.369,23.967
539310,2.383,2.373,23.834
539325,2.391,2.378,23.914
539340,2.407,2.382,24.065
539355,2.437,2.389,24.365
539370,2.444,2.395,24.435
539385,2.403,2.398,24.028
539400,2.430,2.403,24.304
539415,2.412,2.407,24.123
539430,2.428,2.413,24.280
539445,2.425,2.416,24.249
539460,2.420,2.420,24.196
539475,2.410,2.421,24.097
539490,2.397,2.420,23.967
539505,2.385,2.415,23.846
539520,2.391,2.410,23.912
539535,2.411,2.411,24.111
539550,2.431,2.411,24.311
539565,2.430,2.413,24.295
539580,2.430,2.413,24.298
539595,2.431,2.413,24.310
539610,2.401,2.412,24.005
539625,2.386,2.409,23.858
539640,2.383,2.408,23.827
539655,2.407,2.410,24.069
539670,2.401,2.411,24.009
539685,2.314,2.401,23.139
539700,2.559,2.414,25.589
539715,2.765,2.448,27.650
539730,2.962,2.501,29.620
539745,3.115,2.569,31.146
539760,3.215,2.651,32.146
539775,3.303,2.742,33.029
539790,3.308,2.835,33.076
539805,3.325,2.927,33.250
539820,3.295,3.016,32.954
539835,3.266,3.111,32.658
539850,3.249,3.180,32.485
539865,3.187,3.222,31.869
539880,3.148,3.241,31.481
539895,3.077,3.237,30.767
539910,3.034,3.219,30.336
539925,2.964,3.185,29.645
539940,2.930,3.147,29.298
539955,2.857,3.101,28.569
539970,2.836,3.055,28.363
539985,2.821,3.010,28.209
540000,2.743,2.960,27.429
540015,2.685,2.909,26.846
540030,2.639,2.859,26.395
540045,2.594,2.810,25.936
540060,2.597,2.767,25.971
540075,2.559,2.726,25.591
540090,2.561,2.689,25.606
540105,2.564,2.660,25.639
540120,2.574,2.634,25.737
540135,2.578,2.609,25.784
540150,2.539,2.589,25.395
540165,2.516,2.572,25.159
540180,2.529,2.561,25.294
540195,2.514,2.553,25.141
540210,2.480,2.541,24.800
540225,2.447,2.530,24.466
540240,2.459,2.520,24.592
540255,2.466,2.510,24.660
540270,2.451,2.498,24.513
540285,2.453,2.485,24.529
540300,2.473,2.479,24.727
540315,2.475,2.475,24.753
540330,2.476,2.469,24.759
540345,2.476,2.466,24.764
540360,2.474,2.465,24.741
540375,2.445,2.465,24.452
540390,2.423,2.461,24.228
540405,2.428,2.457,24.276
540420,2.438,2.456,24.376
540435,2.467,2.457,24.670
540450,2.448,2.455,24.476
540465,2.447,2.452,24.472
540480,2.474,2.452,24.741
540495,2.469,2.451,24.692
540510,2.474,2.451,24.743
540525,2.478,2.455,24.784
540540,2.454,2.458,24.539
540555,2.437,2.459,24.368
540570,2.468,2.462,24.684
540585,2.480,2.463,24.802
540600,2.532,2.471,25.315
540615,2.519,2.479,25.194
540630,2.491,2.480,24.915
540645,2.480,2.481,24.805
540660,2.503,2.484,25.035
540675,2.502,2.487,25.019
540690,2.468,2.488,24.680
540705,2.452,2.490,24.517
540720,2.442,2.487,24.421
540735,2.461,2.485,24.606
540750,2.455,2.477,24.554
540765,2.437,2.469,24.366
540780,2.498,2.470,24.984
540795,2.335,2.455,23.349
540810,2.174,2.422,21.745
540825,2.015,2.374,20.150
540840,1.827,2.310,18.272
540855,1.712,2.236,17.119
540870,1.651,2.157,16.515
540885,1.630,2.074,16.299
540900,1.598,1.988,15.976
540915,1.571,1.901,15.714
540930,1.596,1.811,15.963
540945,1.592,1.737,15.920
540960,1.631,1.682,16.306
540975,1.664,1.647,16.642
540990,1.689,1.633,16.889
541005,1.707,1.633,17.065
541020,1.752,1.643,17.520
541035,1.793,1.659,17.926
541050,1.849,1.684,18.495
541065,1.870,1.714,18.704
541080,1.911,1.746,19.106
541095,1.980,1.785,19.798
541110,2.042,1.826,20.419
541125,2.109,1.870,21.095
541140,2.137,1.915,21.369
541155,2.171,1.961,21.710
541170,2.160,2.002,21.604
541185,2.192,2.042,21.916
541200,2.214,2.079,22.141
541215,2.279,2.119,22.786
541230,2.298,2.158,22.980
541245,2.331,2.193,23.309
541260,2.340,2.223,23.404
541275,2.350,2.247,23.504
541290,2.365,2.270,23.653
541305,2.351,2.288,23.506
541320,2.366,2.309,23.658
541335,2.400,2.329,24.001
541350,2.406,2.349,24.059
541365,2.395,2.360,23.945
541380,2.383,2.369,23.834
541395,2.391,2.375,23.906
541410,2.374,2.378,23.735
541425,2.389,2.382,23.890
541440,2.390,2.384,23.904
541455,2.382,2.388,23.824
541470,2.404,2.391,24.035
541485,2.399,2.391,23.989
541500,2.395,2.390,23.949
541515,2.405,2.391,24.050
541530,2.387,2.391,23.869
541545,2.413,2.394,24.129
541560,2.384,2.395,23.836
541575,2.371,2.393,23.708
541590,2.364,2.390,23.636
541605,2.365,2.389,23.655
541620,2.378,2.386,23.776
541635,2.386,2.385,23.864
541650,2.385,2.384,23.850
541665,2.409,2.384,24.088
541680,2.431,2.389,24.310
541695,2.411,2.388,24.107
541710,2.410,2.391,24.097
541725,2.400,2.394,24.000
541740,2.396,2.397,23.961
541755,2.293,2.390,22.929
541770,2.554,2.407,25.542
541785,2.758,2.445,27.576
541800,2.915,2.498,29.149
541815,3.067,2.563,30.670
541830,3.156,2.636,31.558
541845,3.218,2.717,32.176
541860,3.261,2.802,32.612
541875,3.301,2.892,33.014
541890,3.310,2.983,33.101
541905,3.279,3.082,32.789
541920,3.244,3.151,32.439
541935,3.205,3.196,32.050
541950,3.171,3.221,31.707
541965,3.109,3.225,31.086
541980,3.075,3.217,30.747
541995,3.000,3.195,30.000
542010,2.876,3.157,28.765
542025,2.790,3.106,27.898
542040,2.736,3.048,27.358
542055,2.697,2.990,26.969
542070,2.679,2.934,26.786
542085,2.636,2.877,26.356
542100,2.593,2.819,25.929
542115,2.573,2.765,25.734
542130,2.500,2.708,25.003
542145,2.461,2.654,24.613
542160,2.512,2.618,25.116
542175,2.492,2.588,24.923
542190,2.497,2.564,24.965
542205,2.490,2.543,24.897
542220,2.471,2.522,24.708
542235,2.459,2.505,24.591
542250,2.439,2.489,24.391
542265,2.462,2.478,24.618
542280,2.437,2.472,24.365
542295,2.425,2.468,24.253
542310,2.457,2.463,24.575
542325,2.427,2.456,24.270
542340,2.436,2.450,24.362
542355,2.432,2.445,24.320
542370,2.442,2.442,24.416
542385,2.456,2.441,24.562
542400,2.445,2.442,24.454
542415,2.443,2.440,24.432
542430,2.408,2.437,24.084
542445,2.395,2.434,23.946
542460,2.408,2.429,24.077
542475,2.422,2.429,24.225
542490,2.416,2.427,24.161
542505,2.435,2.427,24.350
542520,2.424,2.425,24.236
542535,2.415,2.421,24.153
542550,2.422,2.419,24.221
542565,2.441,2.419,24.410
542580,2.432,2.421,24.320
542595,2.445,2.426,24.449
542610,2.456,2.431,24.557
542625,2.437,2.432,24.366
542640,2.411,2.432,24.109
542655,2.412,2.429,24.123
542670,2.401,2.427,24.007
542685,2.406,2.426,24.056
542700,2.426,2.427,24.261
542715,2.410,2.423,24.100
542730,2.412,2.421,24.119
542745,2.424,2.419,24.245
542760,2.420,2.416,24.204
542775,2.201,2.392,22.011
542790,1.986,2.350,19.860
542805,1.834,2.292,18.336
542820,1.705,2.222,17.054
542835,1.656,2.147,16.556
542850,1.587,2.064,15.869
542865,1.554,1.978,15.538
542880,1.564,1.893,15.636
542895,1.565,1.807,15.653
542910,1.610,1.726,16.101
542925,1.634,1.669,16.339
542940,1.677,1.639,16.770
542955,1.717,1.627,17.173
542970,1.784,1.635,17.836
542985,1.834,1.653,18.341
543000,1.938,1.688,19.378
543015,2.030,1.735,20.301
543030,2.088,1.788,20.877
543045,2.152,1.846,21.519
543060,2.172,1.902,21.716
543075,2.201,1.959,22.006
543090,2.225,2.014,22.249
543105,2.248,2.067,22.483
543120,2.284,2.117,22.843
543135,2.285,2.162,22.846
543150,2.326,2.201,23.265
543165,2.343,2.232,23.431
543180,2.372,2.261,23.725
543195,2.338,2.279,23.381
543210,2.360,2.298,23.604
543225,2.403,2.319,24.029
543240,2.373,2.333,23.728
543255,2.387,2.347,23.869
543270,2.393,2.358,23.929
543285,2.404,2.370,24.039
543300,2.414,2.379,24.139
543315,2.381,2.383,23.811
543330,2.372,2.382,23.715
543345,2.372,2.386,23.715
543360,2.375,2.387,23.754
543375,2.378,2.385,23.779
543390,2.394,2.387,23.944
543405,2.408,2.389,24.084
543420,2.376,2.387,23.763
543435,2.381,2.385,23.814
543450,2.387,2.383,23.874
543465,2.390,2.383,23.900
543480,2.396,2.386,23.959
543495,2.417,2.390,24.165
543510,2.408,2.394,24.080
543525,2.405,2.396,24.055
543540,2.431,2.400,24.314
543555,2.427,2.402,24.267
543570,2.438,2.408,24.375
543585,2.434,2.413,24.341
543600,2.422,2.417,24.220
543615,2.411,2.419,24.110
543630,2.403,2.420,24.032
543645,2.418,2.420,24.183
543660,2.309,2.410,23.093
543675,2.591,2.428,25.911
543690,2.784,2.464,27.845
543705,2.963,2.517,29.625
543720,3.072,2.581,30.725
543735,3.171,2.655,31.715
543750,3.223,2.735,32.234
543765,3.245,2.818,32.454
543780,3.224,2.900,32.244
543795,3.209,2.979,32.089
543810,3.151,3.064,31.515
543825,3.114,3.116,31.144
543840,3.052,3.143,30.521
543855,2.976,3.144,29.764
543870,2.969,3.134,29.686
543885,2.934,3.110,29.341
543900,2.889,3.077,28.895
543915,2.868,3.039,28.676
543930,2.882,3.005,28.825
543945,2.858,2.969,28.576
543960,2.760,2.930,27.601
543975,2.702,2.889,27.019
543990,2.622,2.846,26.225
544005,2.582,2.807,25.819
544020,2.591,2.769,25.911
544035,2.608,2.736,26.081
544050,2.551,2.702,25.513
544065,2.561,2.672,25.606
544080,2.538,2.637,25.384
544095,2.525,2.604,25.249
544110,2.490,2.577,24.897
544125,2.487,2.556,24.865
544140,2.447,2.538,24.467
544155,2.463,2.526,24.632
544170,2.437,2.511,24.368
544185,2.437,2.493,24.366
544200,2.451,2.483,24.511
544215,2.393,2.467,23.930
544230,2.414,2.454,24.142
544245,2.448,2.447,24.483
544260,2.443,2.442,24.430
544275,2.459,2.439,24.592
544290,2.437,2.438,24.369
544305,2.424,2.434,24.240
544320,2.419,2.432,24.186
544335,2.427,2.431,24.265
544350,2.444,2.431,24.440
544365,2.420,2.433,24.201
544380,2.411,2.433,24.107
544395,2.401,2.428,24.010
544410,2.415,2.426,24.148
544425,2.425,2.422,24.250
544440,2.380,2.416,23.798
544455,2.401,2.414,24.005
544470,2.407,2.413,24.067
544485,2.397,2.410,23.970
544500,2.411,2.407,24.114
544515,2.412,2.406,24.118
544530,2.437,2.408,24.366
544545,2.441,2.412,24.411
544560,2.467,2.418,24.665
544575,2.444,2.420,24.440
544590,2.413,2.423,24.134
544605,2.410,2.424,24.100
544620,2.412,2.424,24.121
544635,2.415,2.426,24.151
544650,2.407,2.426,24.069
544665,2.431,2.428,24.311
544680,2.406,2.425,24.056
544695,2.386,2.419,23.858
544710,2.414,2.414,24.141
544725,2.400,2.409,24.001
544740,2.476,2.416,24.756
544755,2.317,2.406,23.166
544770,2.151,2.380,21.511
544785,1.965,2.335,19.651
544800,1.770,2.272,17.704
544815,1.669,2.195,16.694
544830,1.582,2.113,15.825
544845,1.527,2.027,15.269
544860,1.526,1.938,15.259
544875,1.559,1.854,15.589
544890,1.543,1.761,15.426
544905,1.571,1.686,15.711
544920,1.623,1.634,16.235
544935,1.681,1.605,16.815
544950,1.708,1.599,17.077
544965,1.784,1.610,17.838
544980,1.865,1.639,18.653
544995,1.902,1.676,19.023
545010,1.959,1.720,19.586
545025,1.993,1.763,19.931
545040,2.049,1.814,20.494
545055,2.120,1.868,21.196
545070,2.172,1.923,21.721
545085,2.206,1.976,22.059
545100,2.262,2.031,22.618
545115,2.289,2.082,22.892
545130,2.284,2.124,22.845
545145,2.277,2.161,22.768
545160,2.291,2.194,22.911
545175,2.313,2.226,23.131
545190,2.329,2.254,23.289
545205,2.380,2.280,23.799
545220,2.384,2.302,23.842
545235,2.404,2.321,24.042
545250,2.361,2.331,23.611
545265,2.388,2.341,23.877
545280,2.363,2.349,23.628
545295,2.333,2.355,23.328
545310,2.360,2.361,23.596
545325,2.410,2.371,24.102
545340,2.408,2.379,24.081
545355,2.394,2.380,23.937
545370,2.411,2.383,24.114
545385,2.401,2.383,24.015
545400,2.381,2.385,23.814
545415,2.402,2.386,24.023
545430,2.415,2.392,24.155
545445,2.420,2.400,24.196
545460,2.418,2.406,24.183
545475,2.418,2.407,24.183
545490,2.388,2.405,23.883
545505,2.382,2.404,23.825
545520,2.417,2.404,24.170
545535,2.421,2.406,24.209
545550,2.393,2.408,23.934
545565,2.427,2.410,24.270
545580,2.418,2.410,24.185
545595,2.376,2.406,23.760
545610,2.414,2.406,24.136
545625,2.430,2.407,24.295
545640,2.401,2.408,24.006
545655,2.436,2.413,24.364
545670,2.412,2.413,24.120
545685,2.410,2.412,24.099
545700,2.409,2.413,24.094
545715,2.418,2.412,24.183
545730,2.427,2.413,24.271
545745,2.438,2.419,24.380
545760,2.379,2.416,23.794
545775,2.507,2.424,25.065
545790,2.710,2.455,27.100
545805,2.914,2.502,29.139
545820,3.051,2.566,30.511
545835,3.186,2.644,31.856
545850,3.248,2.728,32.478
545865,3.293,2.815,32.925
545880,3.289,2.901,32.894
545895,3.276,2.985,32.757
545910,3.243,3.072,32.431
545925,3.234,3.144,32.339
545940,3.207,3.194,32.067
545955,3.184,3.221,31.839
545970,3.134,3.229,31.341
545985,3.055,3.216,30.546
546000,2.972,3.189,29.721
546015,2.923,3.152,29.230
546030,2.899,3.113,28.990
546045,2.834,3.068,28.340
546060,2.806,3.025,28.062
546075,2.716,2.973,27.161
546090,2.644,2.917,26.436
546105,2.628,2.861,26.275
546120,2.576,2.805,25.755
546135,2.561,2.756,25.614
546150,2.518,2.710,25.180
546165,2.522,2.670,25.220
546180,2.502,2.631,25.019
546195,2.489,2.596,24.886
546210,2.465,2.562,24.651
546225,2.451,2.535,24.508
546240,2.440,2.515,24.403
546255,2.440,2.496,24.403
546270,2.420,2.481,24.201
546285,2.453,2.470,24.534
546300,2.440,2.462,24.396
546315,2.445,2.454,24.450
546330,2.434,2.448,24.344
546345,2.394,2.438,23.944
546360,2.413,2.433,24.132
546375,2.429,2.431,24.294
546390,2.396,2.427,23.959
546405,2.417,2.424,24.171
546420,2.425,2.425,24.250
546435,2.422,2.422,24.225
546450,2.423,2.420,24.234
546465,2.410,2.417,24.099
546480,2.407,2.414,24.065
546495,2.401,2.414,24.015
546510,2.409,2.414,24.094
546525,2.415,2.413,24.148
546540,2.420,2.415,24.201
546555,2.411,2.414,24.106
546570,2.427,2.415,24.267
546585,2.412,2.413,24.118
546600,2.399,2.411,23.986
546615,2.401,2.410,24.014
546630,2.446,2.414,24.464
546645,2.421,2.416,24.209
546660,2.449,2.420,24.493
546675,2.420,2.421,24.199
546690,2.403,2.419,24.031
546705,2.380,2.416,23.804
546720,2.467,2.420,24.666
546735,2.305,2.409,23.048
546750,2.074,2.377,20.739
546765,1.891,2.326,18.908
546780,1.750,2.256,17.504
546795,1.631,2.177,16.310
546810,1.589,2.091,15.894
546825,1.548,2.004,15.477
546840,1.560,1.919,15.600
546855,1.570,1.838,15.701
546870,1.587,1.751,15.874
546885,1.588,1.679,15.884
546900,1.643,1.636,16.429
546915,1.689,1.616,16.894
546930,1.744,1.615,17.441
546945,1.781,1.630,17.812
546960,1.841,1.655,18.406
546975,1.954,1.696,19.536
546990,2.015,1.741,20.146
547005,2.081,1.792,20.806
547020,2.142,1.848,21.424
547035,2.208,1.910,22.078
547050,2.217,1.967,22.166
547065,2.227,2.021,22.271
547080,2.251,2.072,22.513
547095,2.286,2.122,22.857
547110,2.304,2.168,23.036
547125,2.373,2.210,23.729
547140,2.305,2.239,23.045
547155,2.264,2.258,22.645
547170,2.252,2.269,22.517
547185,2.248,2.273,22.484
547200,2.292,2.280,22.915
547215,2.296,2.287,22.961
547230,2.306,2.293,23.065
547245,2.301,2.294,23.006
547260,2.345,2.298,23.446
547275,2.310,2.292,23.101
547290,2.315,2.293,23.146
547305,2.357,2.302,23.570
547320,2.364,2.313,23.639
547335,2.349,2.323,23.488
547350,2.394,2.334,23.936
547365,2.389,2.343,23.886
547380,2.384,2.351,23.836
547395,2.398,2.360,23.980
547410,2.396,2.365,23.961
547425,2.415,2.376,24.148
547440,2.419,2.386,24.194
547455,2.394,2.390,23.937
547470,2.398,2.393,23.981
547485,2.403,2.399,24.032
547500,2.385,2.398,23.851
547515,2.402,2.399,24.020
547530,2.399,2.401,23.991
547545,2.416,2.403,24.158
547560,2.392,2.402,23.924
547575,2.422,2.403,24.225
547590,2.406,2.402,24.059
547605,2.416,2.404,24.159
547620,2.395,2.404,23.945
547635,2.366,2.400,23.659
547650,2.417,2.403,24.165
547665,2.281,2.391,22.810
547680,2.607,2.412,26.074
547695,2.827,2.453,28.267
547710,3.014,2.515,30.145
547725,3.163,2.589,31.629
547740,3.248,2.673,32.478
547755,3.274,2.759,32.736
547770,3.313,2.851,33.130
547785,3.311,2.945,33.109
547800,3.289,3.033,32.888
547815,3.275,3.132,32.750
547830,3.210,3.192,32.101
547845,3.122,3.222,31.225
547860,3.098,3.230,30.984
547875,3.053,3.219,30.531
547890,3.005,3.195,30.051
547905,2.961,3.164,29.613
547920,2.860,3.119,28.604
547935,2.765,3.064,27.647
547950,2.706,3.006,27.061
547965,2.660,2.944,26.597
547980,2.604,2.884,26.039
547995,2.580,2.829,25.801
548010,2.569,2.776,25.691
548025,2.553,2.726,25.528
548040,2.536,2.679,25.357
548055,2.511,2.634,25.108
548070,2.498,2.598,24.981
548085,2.483,2.570,24.826
548100,2.477,2.547,24.767
548115,2.490,2.530,24.897
548130,2.475,2.517,24.749
548145,2.467,2.506,24.666
548160,2.443,2.493,24.432
548175,2.441,2.482,24.407
548190,2.429,2.471,24.290
548205,2.433,2.463,24.329
548220,2.440,2.458,24.399
548235,2.456,2.455,24.562
548250,2.428,2.450,24.283
548265,2.407,2.442,24.072
548280,2.405,2.435,24.051
548295,2.424,2.431,24.237
548310,2.461,2.432,24.610
548325,2.446,2.433,24.461
548340,2.440,2.434,24.397
548355,2.420,2.433,24.204
548370,2.426,2.431,24.260
548385,2.437,2.429,24.371
548400,2.380,2.425,23.802
548415,2.434,2.427,24.341
548430,2.450,2.432,24.500
548445,2.462,2.436,24.622
548460,2.457,2.435,24.569
548475,2.464,2.437,24.636
548490,2.454,2.438,24.539
548505,2.457,2.442,24.569
548520,2.461,2.446,24.610
548535,2.435,2.445,24.346
548550,2.430,2.450,24.295
548565,2.434,2.450,24.335
548580,2.438,2.449,24.380
548595,2.464,2.449,24.635
548610,2.447,2.448,24.470
548625,2.428,2.445,24.285
548640,2.429,2.442,24.291
548655,2.486,2.445,24.859
548670,2.245,2.423,22.451
548685,2.048,2.385,20.483
548700,1.881,2.330,18.812
548715,1.772,2.264,17.724
548730,1.666,2.187,16.665
548745,1.611,2.102,16.113
548760,1.589,2.016,15.886
548775,1.577,1.931,15.775
548790,1.594,1.847,15.936
548805,1.643,1.763,16.435
548820,1.684,1.707,16.839
548835,1.816,1.683,18.161
548850,1.909,1.686,19.091
548865,1.962,1.705,19.616
548880,2.040,1.743,20.401
548895,2.112,1.793,21.124
548910,2.138,1.848,21.381
548925,2.193,1.909,21.925
548940,2.231,1.973,22.309
548955,2.256,2.034,22.564
548970,2.281,2.094,22.808
548985,2.296,2.142,22.963
549000,2.322,2.183,23.219
549015,2.334,2.220,23.340
549030,2.346,2.251,23.460
549045,2.360,2.276,23.603
549060,2.348,2.297,23.482
549075,2.349,2.312,23.490
549090,2.334,2.323,23.336
549105,2.355,2.333,23.551
549120,2.364,2.341,23.639
549135,2.386,2.350,23.860
549150,2.399,2.358,23.994
549165,2.416,2.366,24.156
549180,2.419,2.373,24.187
549195,2.411,2.378,24.111
549210,2.400,2.383,23.997
549225,2.414,2.390,24.137
549240,2.405,2.397,24.054
549255,2.421,2.403,24.206
549270,2.412,2.408,24.118
549285,2.419,2.412,24.194
549300,2.415,2.413,24.153
549315,2.394,2.411,23.940
549330,2.401,2.409,24.012
549345,2.430,2.411,24.302
549360,2.337,2.405,23.366
549375,2.260,2.389,22.596
549390,2.273,2.376,22.730
549405,2.283,2.362,22.833
549420,2.321,2.353,23.206
549435,2.293,2.341,22.925
549450,2.293,2.328,22.934
549465,2.341,2.323,23.412
549480,2.357,2.319,23.570
549495,2.365,2.312,23.646
549510,2.380,2.317,23.800
549525,2.363,2.327,23.628
549540,2.388,2.338,23.877
549555,2.388,2.349,23.876
549570,2.380,2.355,23.801
549585,2.381,2.364,23.814
549600,2.400,2.374,23.999
549615,2.433,2.383,24.327
549630,2.418,2.389,24.176
549645,2.412,2.394,24.120
549660,2.352,2.391,23.517
549675,2.495,2.405,24.952
549690,2.678,2.434,26.784
549705,2.870,2.482,28.699
549720,3.073,2.551,30.730
549735,3.162,2.629,31.618
549750,3.228,2.712,32.280
549765,3.230,2.792,32.299
549780,3.247,2.875,32.475
549795,3.239,2.957,32.394
549810,3.205,3.043,32.048
549825,3.177,3.111,31.766
549840,3.120,3.155,31.199
549855,3.087,3.177,30.868
549870,3.047,3.174,30.475
549885,2.966,3.155,29.661
549900,2.847,3.117,28.472
549915,2.768,3.070,27.677
549930,2.698,3.015,26.978
549945,2.672,2.959,26.716
549960,2.648,2.903,26.477
549975,2.621,2.847,26.210
549990,2.556,2.791,25.555
550005,2.534,2.736,25.339
550020,2.512,2.682,25.119
550035,2.493,2.635,24.931
550050,2.506,2.601,25.061
550065,2.487,2.573,24.873
550080,2.501,2.553,25.015
550095,2.476,2.533,24.764
550110,2.456,2.514,24.564
550125,2.456,2.498,24.557
550140,2.430,2.485,24.296
550155,2.415,2.473,24.150
550170,2.398,2.462,23.976
550185,2.419,2.454,24.193
550200,2.392,2.443,23.921
550215,2.412,2.436,24.118
550230,2.430,2.428,24.295
550245,2.452,2.426,24.519
550260,2.444,2.425,24.445
550275,2.413,2.420,24.128
550290,2.405,2.418,24.055
550305,2.394,2.416,23.940
550320,2.402,2.416,24.020
550335,2.394,2.414,23.942
550350,2.403,2.415,24.029
550365,2.418,2.416,24.179
550380,2.403,2.413,24.032
550395,2.420,2.410,24.195
550410,2.415,2.407,24.150
550425,2.378,2.403,23.778
550440,2.367,2.399,23.674
550455,2.388,2.399,23.875
550470,2.408,2.399,24.077
550485,2.420,2.402,24.204
550500,2.418,2.403,24.181
550515,2.415,2.403,24.154
550530,2.410,2.404,24.101
550545,2.406,2.403,24.058
550560,2.417,2.403,24.171
550575,2.413,2.406,24.132
550590,2.428,2.412,24.276
550605,2.400,2.414,23.997
550620,2.401,2.413,24.005
550635,2.398,2.411,23.984
550650,2.399,2.409,23.986
550665,2.389,2.406,23.889
550680,2.432,2.408,24.318
550695,2.434,2.411,24.341
550710,2.405,2.410,24.054
550725,2.426,2.411,24.263
550740,2.398,2.408,23.975
550755,2.402,2.408,24.025
550770,2.403,2.409,24.031
550785,2.462,2.415,24.619
550800,2.269,2.402,22.690
550815,2.049,2.368,20.486
550830,1.885,2.313,18.845
550845,1.747,2.245,17.471
550860,1.646,2.169,16.465
550875,1.622,2.088,16.224
550890,1.606,2.009,16.060
550905,1.605,1.929,16.046
550920,1.620,1.851,16.201
550935,1.631,1.768,16.309
550950,1.668,1.708,16.684
550965,1.699,1.673,16.990
550980,1.744,1.659,17.439
550995,1.804,1.665,18.038
551010,1.848,1.685,18.484
551025,1.920,1.714,19.199
551040,1.948,1.749,19.476
551055,2.023,1.790,20.227
551070,2.072,1.836,20.719
551085,2.129,1.885,21.286
551100,2.175,1.936,21.754
551115,2.189,1.985,21.890
551130,2.237,2.034,22.370
551145,2.249,2.079,22.493
551160,2.277,2.122,22.774
551175,2.306,2.160,23.055
551190,2.311,2.197,23.114
551205,2.340,2.229,23.400
551220,2.348,2.256,23.482
551235,2.376,2.281,23.756
551250,2.349,2.298,23.490
551265,2.368,2.316,23.680
551280,2.386,2.331,23.858
551295,2.394,2.346,23.942
551310,2.385,2.356,23.846
551325,2.363,2.362,23.632
551340,2.376,2.368,23.757
551355,2.384,2.373,23.836
551370,2.390,2.377,23.896
551385,2.402,2.380,24.018
551400,2.410,2.386,24.097
551415,2.397,2.389,23.966
551430,2.400,2.390,24.000
551445,2.385,2.389,23.850
551460,2.394,2.390,23.941
551475,2.386,2.392,23.856
551490,2.433,2.398,24.326
551505,2.363,2.396,23.632
551520,2.387,2.396,23.866
551535,2.405,2.396,24.054
551550,2.389,2.394,23.890
551565,2.392,2.393,23.923
551580,2.390,2.392,23.896
551595,2.408,2.395,24.079
551610,2.405,2.396,24.049
551625,2.432,2.400,24.320
551640,2.401,2.397,24.010
551655,2.397,2.401,23.966
551670,2.402,2.402,24.016
551685,2.393,2.401,23.932
551700,2.390,2.401,23.903
551715,2.422,2.404,24.220
551730,2.441,2.409,24.410
551745,2.418,2.410,24.177
551760,2.431,2.413,24.310
551775,2.383,2.408,23.826
551790,2.438,2.411,24.381
551805,2.648,2.437,26.480
551820,2.850,2.481,28.499
551835,3.038,2.546,30.384
551850,3.135,2.620,31.349
551865,3.218,2.700,32.184
551880,3.285,2.784,32.853
551895,3.293,2.872,32.935
551910,3.291,2.958,32.914
551925,3.273,3.047,32.735
551940,3.232,3.127,32.320
551955,3.223,3.184,32.231
551970,3.198,3.219,31.983
551985,3.129,3.228,31.295
552000,3.082,3.223,30.823
552015,3.017,3.203,30.175
552030,2.960,3.170,29.602
552045,2.926,3.133,29.264
552060,2.886,3.093,28.858
552075,2.843,3.050,28.429
552090,2.785,3.005,27.847
552105,2.741,2.957,27.409
552120,2.716,2.909,27.155
552135,2.651,2.861,26.512
552150,2.635,2.816,26.353
552165,2.609,2.775,26.093
552180,2.573,2.736,25.726
552195,2.564,2.700,25.644
552210,2.537,2.665,25.366
552225,2.501,2.631,25.009
552240,2.464,2.599,24.637
552255,2.447,2.570,24.471
552270,2.432,2.541,24.321
552285,2.444,2.521,24.440
552300,2.453,2.502,24.530
552315,2.439,2.485,24.394
552330,2.425,2.471,24.255
552345,2.421,2.456,24.205
552360,2.436,2.446,24.364
552375,2.440,2.440,24.400
552390,2.447,2.439,24.472
552405,2.429,2.437,24.289
552420,2.454,2.439,24.537
552435,2.460,2.440,24.602
552450,2.451,2.440,24.509
552465,2.449,2.441,24.489
552480,2.450,2.444,24.497
552495,2.433,2.445,24.331
552510,2.424,2.444,24.239
552525,2.412,2.441,24.123
552540,2.399,2.436,23.995
552555,2.370,2.430,23.698
552570,2.384,2.423,23.841
552585,2.408,2.418,24.081
552600,2.428,2.416,24.276
552615,2.457,2.416,24.567
552630,2.427,2.414,24.270
552645,2.415,2.412,24.150
552660,2.414,2.411,24.139
552675,2.412,2.411,24.118
552690,2.412,2.413,24.116
552705,2.395,2.415,23.949
552720,2.397,2.416,23.966
552735,2.412,2.417,24.120
552750,2.417,2.416,24.167
552765,2.408,2.411,24.079
552780,2.390,2.407,23.900
552795,2.417,2.407,24.169
552810,2.388,2.405,23.875
552825,2.412,2.405,24.123
552840,2.386,2.402,23.859
552855,2.464,2.409,24.639
552870,2.249,2.394,22.487
552885,2.078,2.361,20.780
552900,1.884,2.307,18.837
552915,1.744,2.241,17.441
552930,1.642,2.166,16.419
552945,1.583,2.083,15.829
552960,1.531,1.997,15.310
552975,1.515,1.908,15.151
552990,1.534,1.822,15.341
553005,1.525,1.728,15.250
553020,1.581,1.662,15.813
553035,1.616,1.616,16.159
553050,1.671,1.594,16.710
553065,1.704,1.590,17.041
553080,1.798,1.606,17.978
553095,1.839,1.631,18.394
553110,1.916,1.670,19.163
553125,1.955,1.714,19.550
553140,2.010,1.762,20.096
553155,2.081,1.817,20.810
553170,2.113,1.870,21.129
553185,2.153,1.924,21.526
553200,2.206,1.977,22.062
553215,2.243,2.031,22.427
553230,2.253,2.077,22.526
553245,2.263,2.119,22.627
553260,2.307,2.158,23.070
553275,2.333,2.196,23.334
553290,2.374,2.233,23.740
553305,2.390,2.263,23.901
553320,2.385,2.291,23.847
553335,2.389,2.314,23.892
553350,2.393,2.333,23.926
553365,2.381,2.347,23.814
553380,2.377,2.359,23.770
553395,2.384,2.371,23.842
553410,2.374,2.378,23.739
553425,2.390,2.384,23.903
553440,2.425,2.389,24.250
553455,2.409,2.391,24.093
553470,2.399,2.392,23.986
553485,2.388,2.392,23.881
553500,2.399,2.393,23.986
553515,2.394,2.394,23.935
